# wavenumber, intensity
2.009300000000000068e+02,1.247569032781381190e-02
2.019000000000000057e+02,1.210393180060263113e-02
2.028600000000000136e+02,1.173956927637057751e-02
2.038199999999999932e+02,1.158909082477106028e-02
2.047899999999999920e+02,1.177784515432343630e-02
2.057500000000000000e+02,1.226304795032920163e-02
2.067199999999999989e+02,1.287319111215465967e-02
2.076800000000000068e+02,1.335379380264558984e-02
2.086500000000000057e+02,1.356854456182450715e-02
2.096100000000000136e+02,1.354608571334135932e-02
2.105699999999999932e+02,1.350932653684439738e-02
2.115399999999999920e+02,1.368999318088550549e-02
2.125000000000000000e+02,1.412708654004772232e-02
2.134699999999999989e+02,1.472086265978744986e-02
2.144300000000000068e+02,1.528494643179232476e-02
2.154000000000000057e+02,1.561230810731748485e-02
2.163600000000000136e+02,1.568561395543709158e-02
2.173199999999999932e+02,1.566245925765955005e-02
2.182899999999999920e+02,1.579591648550135452e-02
2.192500000000000000e+02,1.629350706565192361e-02
2.202199999999999989e+02,1.725400826381480110e-02
2.211800000000000068e+02,1.859136810617284183e-02
2.221399999999999864e+02,2.018879224708906503e-02
2.231100000000000136e+02,2.183075490960762963e-02
2.240699999999999932e+02,2.329210092923195835e-02
2.250399999999999920e+02,2.435070021085300462e-02
2.260000000000000000e+02,2.489124594295408915e-02
2.269699999999999989e+02,2.486376197920733486e-02
2.279300000000000068e+02,2.431035345206590884e-02
2.288899999999999864e+02,2.327298382406676330e-02
2.298600000000000136e+02,2.196991226819629967e-02
2.308199999999999932e+02,2.066706571748685994e-02
2.317899999999999920e+02,1.960239963004177868e-02
2.327500000000000000e+02,1.890726701877079932e-02
2.337199999999999989e+02,1.865307368821125453e-02
2.346800000000000068e+02,1.873808813823019809e-02
2.356399999999999864e+02,1.891232546813230789e-02
2.366100000000000136e+02,1.896568502540051798e-02
2.375699999999999932e+02,1.888204144015915090e-02
2.385399999999999920e+02,1.875477602100861577e-02
2.395000000000000000e+02,1.870372485002236296e-02
2.404699999999999989e+02,1.881273985055390008e-02
2.414300000000000068e+02,1.915467686040072184e-02
2.423899999999999864e+02,1.966675110610375393e-02
2.433600000000000136e+02,2.027664842895695110e-02
2.443199999999999932e+02,2.094782632409991630e-02
2.452899999999999920e+02,2.169423094475588301e-02
2.462500000000000000e+02,2.249040337362764180e-02
2.472100000000000080e+02,2.326227524510537936e-02
2.481800000000000068e+02,2.399883380658406062e-02
2.491399999999999864e+02,2.466476574806463623e-02
2.501100000000000136e+02,2.529729275665290600e-02
2.510699999999999932e+02,2.598095010471000374e-02
2.520399999999999920e+02,2.679652297857946716e-02
2.530000000000000000e+02,2.779017493713793752e-02
2.539600000000000080e+02,2.905783734747777527e-02
2.549300000000000068e+02,3.059798517461853606e-02
2.558899999999999864e+02,3.228290298908756406e-02
2.568600000000000136e+02,3.390072759793957141e-02
2.578199999999999932e+02,3.529835132260046582e-02
2.587900000000000205e+02,3.649107451402203856e-02
2.597500000000000000e+02,3.764878440232592022e-02
2.607099999999999795e+02,3.890340901361124398e-02
2.616800000000000068e+02,4.035374228063052376e-02
2.626399999999999864e+02,4.197815454058675261e-02
2.636100000000000136e+02,4.367984357307895527e-02
2.645699999999999932e+02,4.538868693634025980e-02
2.655400000000000205e+02,4.709192600438637244e-02
2.665000000000000000e+02,4.871301735483588718e-02
2.674599999999999795e+02,5.016743821561438221e-02
2.684300000000000068e+02,5.135075702465625308e-02
2.693899999999999864e+02,5.222249785354484558e-02
2.703600000000000136e+02,5.278324404899403105e-02
2.713199999999999932e+02,5.306752556970140144e-02
2.722799999999999727e+02,5.309129278152849296e-02
2.732500000000000000e+02,5.284962057150553033e-02
2.742099999999999795e+02,5.245210728687789425e-02
2.751800000000000068e+02,5.200671373732998481e-02
2.761399999999999864e+02,5.155476170401351171e-02
2.771100000000000136e+02,5.101107006641988906e-02
2.780699999999999932e+02,5.022016442502175854e-02
2.790299999999999727e+02,4.905001258466393926e-02
2.800000000000000000e+02,4.746660126516681621e-02
2.809599999999999795e+02,4.557381618274231050e-02
2.819300000000000068e+02,4.351393560089810569e-02
2.828899999999999864e+02,4.142075008845539502e-02
2.838600000000000136e+02,3.929293461502129242e-02
2.848199999999999932e+02,3.708025469500897398e-02
2.857799999999999727e+02,3.484786182283083206e-02
2.867500000000000000e+02,3.267893707311939067e-02
2.877099999999999795e+02,3.073249659330752961e-02
2.886800000000000068e+02,2.911539283432335382e-02
2.896399999999999864e+02,2.783369676875315987e-02
2.906100000000000136e+02,2.679943971214858445e-02
2.915699999999999932e+02,2.583509675919878207e-02
2.925299999999999727e+02,2.475875123719006171e-02
2.935000000000000000e+02,2.346611742073526422e-02
2.944599999999999795e+02,2.206993956257234310e-02
2.954300000000000068e+02,2.076251374015919068e-02
2.963899999999999864e+02,1.970883957150789539e-02
2.973600000000000136e+02,1.893789272124781278e-02
2.983199999999999932e+02,1.837651317793787681e-02
2.992799999999999727e+02,1.790937329625019378e-02
3.002500000000000000e+02,1.736227741390507923e-02
3.012099999999999795e+02,1.665223612733307545e-02
3.021800000000000068e+02,1.580465001916006931e-02
3.031399999999999864e+02,1.494084687234207252e-02
3.041000000000000227e+02,1.419137968143838191e-02
3.050699999999999932e+02,1.365310900152129359e-02
3.060299999999999727e+02,1.340293242976281149e-02
3.070000000000000000e+02,1.341144512502275531e-02
3.079599999999999795e+02,1.356814038588698319e-02
3.089300000000000068e+02,1.370164344811347808e-02
3.098899999999999864e+02,1.368912232757694969e-02
3.108500000000000227e+02,1.348573849579366019e-02
3.118199999999999932e+02,1.310298804978865875e-02
3.127799999999999727e+02,1.264541922097031819e-02
3.137500000000000000e+02,1.219596307823669207e-02
3.147099999999999795e+02,1.184845927403482477e-02
3.156800000000000068e+02,1.165480066532381329e-02
3.166399999999999864e+02,1.158476572556405362e-02
3.176000000000000227e+02,1.155790677615356997e-02
3.185699999999999932e+02,1.149530534023313934e-02
3.195299999999999727e+02,1.139085711111856476e-02
3.205000000000000000e+02,1.125932909419469219e-02
3.214599999999999795e+02,1.114814737729739186e-02
3.224300000000000068e+02,1.112735106694866770e-02
3.233899999999999864e+02,1.123228680724551280e-02
3.243500000000000227e+02,1.139691975018029997e-02
3.253199999999999932e+02,1.146254625548829426e-02
3.262799999999999727e+02,1.134330185365319509e-02
3.272500000000000000e+02,1.106780386775149672e-02
3.282099999999999795e+02,1.076700113475546200e-02
3.291700000000000159e+02,1.057753845562190397e-02
3.301399999999999864e+02,1.057217999937895905e-02
3.311000000000000227e+02,1.075177578552396519e-02
3.320699999999999932e+02,1.101486515346968703e-02
3.330299999999999727e+02,1.129649244662906359e-02
3.340000000000000000e+02,1.153761464403613331e-02
3.349599999999999795e+02,1.171810211730088883e-02
3.359200000000000159e+02,1.181140842418097747e-02
3.368899999999999864e+02,1.183032552475864023e-02
3.378500000000000227e+02,1.180115402230397237e-02
3.388199999999999932e+02,1.173489000237302841e-02
3.397799999999999727e+02,1.172493977413966749e-02
3.407500000000000000e+02,1.184943012963717707e-02
3.417099999999999795e+02,1.215250374805493250e-02
3.426700000000000159e+02,1.255404212500809205e-02
3.436399999999999864e+02,1.283769863137922129e-02
3.446000000000000227e+02,1.284948640176126165e-02
3.455699999999999932e+02,1.254847116389096011e-02
3.465299999999999727e+02,1.208751059060781535e-02
3.475000000000000000e+02,1.167927205996982694e-02
3.484599999999999795e+02,1.158861164711323839e-02
3.494200000000000159e+02,1.193192785526205925e-02
3.503899999999999864e+02,1.261417267091915345e-02
3.513500000000000227e+02,1.339863649789151817e-02
3.523199999999999932e+02,1.401424645177818881e-02
3.532799999999999727e+02,1.427882752060649803e-02
3.542400000000000091e+02,1.410280264970273714e-02
3.552099999999999795e+02,1.356421946261757161e-02
3.561700000000000159e+02,1.292762152731907581e-02
3.571399999999999864e+02,1.247651117997544343e-02
3.581000000000000227e+02,1.233853301510125580e-02
3.590699999999999932e+02,1.246622344400044949e-02
3.600299999999999727e+02,1.276131354596300380e-02
3.609900000000000091e+02,1.309831710931559298e-02
3.619599999999999795e+02,1.336763578681277216e-02
3.629200000000000159e+02,1.351875175303524079e-02
3.638899999999999864e+02,1.353534796704423948e-02
3.648500000000000227e+02,1.343834157529347553e-02
3.658199999999999932e+02,1.327438364784185552e-02
3.667799999999999727e+02,1.311361746026741722e-02
3.677400000000000091e+02,1.300278991816065932e-02
3.687099999999999795e+02,1.300051903273888310e-02
3.696700000000000159e+02,1.310975487166926405e-02
3.706399999999999864e+02,1.327944209720332766e-02
3.716000000000000227e+02,1.341434519154304991e-02
3.725699999999999932e+02,1.344318335301838627e-02
3.735299999999999727e+02,1.330062591644054493e-02
3.744900000000000091e+02,1.301247764037282394e-02
3.754599999999999795e+02,1.265932787333337410e-02
3.764200000000000159e+02,1.241759316187673358e-02
3.773899999999999864e+02,1.237890894122405799e-02
3.783500000000000227e+02,1.251645792958730637e-02
3.793100000000000023e+02,1.271519582147105296e-02
3.802799999999999727e+02,1.291713378675648713e-02
3.812400000000000091e+02,1.310938402982976536e-02
3.822099999999999795e+02,1.328886314663197885e-02
3.831700000000000159e+02,1.342935803590014285e-02
3.841399999999999864e+02,1.338274029993918521e-02
3.851000000000000227e+02,1.302453208353828926e-02
3.860600000000000023e+02,1.248619473542540714e-02
3.870299999999999727e+02,1.202735921088552568e-02
3.879900000000000091e+02,1.190543974769108469e-02
3.889599999999999795e+02,1.212545312758126284e-02
3.899200000000000159e+02,1.248677391537685206e-02
3.908899999999999864e+02,1.269755791690161707e-02
3.918500000000000227e+02,1.258660120516543433e-02
3.928100000000000023e+02,1.218648786089895214e-02
3.937799999999999727e+02,1.175792386404558507e-02
3.947400000000000091e+02,1.161409973174617680e-02
3.957099999999999795e+02,1.178954958946059131e-02
3.966700000000000159e+02,1.218769205518673536e-02
3.976399999999999864e+02,1.272687942279701438e-02
3.986000000000000227e+02,1.337903604830630554e-02
3.995600000000000023e+02,1.414800368650151290e-02
4.005299999999999727e+02,1.505109106773496429e-02
4.014900000000000091e+02,1.614823706685462532e-02
4.024599999999999795e+02,1.739980744141674321e-02
4.034200000000000159e+02,1.861448113632796150e-02
4.043799999999999955e+02,1.956114035032370871e-02
4.053500000000000227e+02,2.016103744379664151e-02
4.063100000000000023e+02,2.046698612816126930e-02
4.072799999999999727e+02,2.051653309797820887e-02
4.082400000000000091e+02,2.035968366691102288e-02
4.092099999999999795e+02,2.003245949453989413e-02
4.101700000000000159e+02,1.955922363969249747e-02
4.111299999999999955e+02,1.896255162019473001e-02
4.121000000000000227e+02,1.833158714744710996e-02
4.130600000000000023e+02,1.774168194982993912e-02
4.140299999999999727e+02,1.718723589889031150e-02
4.149900000000000091e+02,1.660188913916570835e-02
4.159599999999999795e+02,1.597166218333493856e-02
4.169200000000000159e+02,1.539869487423060901e-02
4.178799999999999955e+02,1.498475204608361484e-02
4.188500000000000227e+02,1.475105918575360560e-02
4.198100000000000023e+02,1.462382293393876299e-02
4.207799999999999727e+02,1.448015713860462822e-02
4.217400000000000091e+02,1.430103219659296411e-02
4.227099999999999795e+02,1.419722981562583815e-02
4.236700000000000159e+02,1.431125326437198732e-02
4.246299999999999955e+02,1.467278655704185031e-02
4.256000000000000227e+02,1.514983083257824721e-02
4.265600000000000023e+02,1.551312249891420754e-02
4.275299999999999727e+02,1.560064950656499076e-02
4.284900000000000091e+02,1.540938261938080110e-02
4.294499999999999886e+02,1.508195010889759081e-02
4.304200000000000159e+02,1.485738662463929535e-02
4.313799999999999955e+02,1.485034896321289072e-02
4.323500000000000227e+02,1.499539395684909224e-02
4.333100000000000023e+02,1.518832338216781312e-02
4.342799999999999727e+02,1.532469734357891876e-02
4.352400000000000091e+02,1.541319104006975103e-02
4.361999999999999886e+02,1.549266786306935546e-02
4.371700000000000159e+02,1.559839528819215171e-02
4.381299999999999955e+02,1.571903972214052161e-02
4.391000000000000227e+02,1.578118698097662545e-02
4.400600000000000023e+02,1.573756098030524783e-02
4.410299999999999727e+02,1.561855825068013751e-02
4.419900000000000091e+02,1.552008099185801272e-02
4.429499999999999886e+02,1.550695569079641074e-02
4.439200000000000159e+02,1.559795361139452996e-02
4.448799999999999955e+02,1.577245761408007860e-02
4.458500000000000227e+02,1.593219044461855263e-02
4.468100000000000023e+02,1.602576342428213216e-02
4.477799999999999727e+02,1.600770467672629066e-02
4.487400000000000091e+02,1.592399025652678490e-02
4.496999999999999886e+02,1.586580142182038300e-02
4.506700000000000159e+02,1.592422359521229736e-02
4.516299999999999955e+02,1.614552033787297614e-02
4.526000000000000227e+02,1.646260677770984213e-02
4.535600000000000023e+02,1.673390883403410093e-02
4.545299999999999727e+02,1.684374885348957976e-02
4.554900000000000091e+02,1.676121779376676252e-02
4.564499999999999886e+02,1.655572558028912608e-02
4.574200000000000159e+02,1.638025905552568245e-02
4.583799999999999955e+02,1.634561242748527529e-02
4.593500000000000227e+02,1.642618094219223251e-02
4.603100000000000023e+02,1.649622004871425726e-02
4.612699999999999818e+02,1.642671428775922815e-02
4.622400000000000091e+02,1.619147139187532281e-02
4.631999999999999886e+02,1.588356016249482111e-02
4.641700000000000159e+02,1.557253636171970768e-02
4.651299999999999955e+02,1.530365519425792679e-02
4.661000000000000227e+02,1.510046303353775390e-02
4.670600000000000023e+02,1.500821091750483699e-02
4.680199999999999818e+02,1.501602776347038017e-02
4.689900000000000091e+02,1.508110425616242083e-02
4.699499999999999886e+02,1.509730879452070469e-02
4.709200000000000159e+02,1.501812781164028020e-02
4.718799999999999955e+02,1.484964061363186483e-02
4.728500000000000227e+02,1.472277103689424715e-02
4.738100000000000023e+02,1.470414560967346629e-02
4.747699999999999818e+02,1.475360091072111177e-02
4.757400000000000091e+02,1.479392266893481828e-02
4.766999999999999886e+02,1.483944037966400051e-02
4.776700000000000159e+02,1.498084362310086320e-02
4.786299999999999955e+02,1.525979585490097254e-02
4.796000000000000227e+02,1.563405443945724282e-02
4.805600000000000023e+02,1.600220038380487098e-02
4.815199999999999818e+02,1.624099336111881758e-02
4.824900000000000091e+02,1.629237370632215243e-02
4.834499999999999886e+02,1.619740902806980631e-02
4.844200000000000159e+02,1.599391686046820749e-02
4.853799999999999955e+02,1.560349957193835242e-02
4.863399999999999750e+02,1.502328626329561476e-02
4.873100000000000023e+02,1.438182571646098168e-02
4.882699999999999818e+02,1.385891372216706968e-02
4.892400000000000091e+02,1.351935176679802675e-02
4.901999999999999886e+02,1.330518435433300679e-02
4.911700000000000159e+02,1.316492697051262553e-02
4.921299999999999955e+02,1.303463648197457012e-02
4.930899999999999750e+02,1.293946763237241102e-02
4.940600000000000023e+02,1.293429668043034886e-02
4.950199999999999818e+02,1.310184219017213395e-02
4.959900000000000091e+02,1.339832399072342882e-02
4.969499999999999886e+02,1.371586460764466671e-02
4.979200000000000159e+02,1.396885791067856153e-02
4.988799999999999955e+02,1.411969470383084811e-02
4.998399999999999750e+02,1.412682820078879631e-02
5.008100000000000023e+02,1.405582240542670863e-02
5.017699999999999818e+02,1.406155587027136007e-02
5.027400000000000091e+02,1.420274244207164228e-02
5.036999999999999886e+02,1.439792191900087989e-02
5.046700000000000159e+02,1.450880362901680112e-02
5.056299999999999955e+02,1.440260535976071836e-02
5.065899999999999750e+02,1.414634114836707014e-02
5.075600000000000023e+02,1.393680300875262297e-02
5.085199999999999818e+02,1.392485273464313424e-02
5.094900000000000091e+02,1.410465269213796030e-02
5.104499999999999886e+02,1.427266487925088131e-02
5.114100000000000250e+02,1.420260910567997491e-02
5.123799999999999955e+02,1.395108666971746521e-02
5.133400000000000318e+02,1.369762252255022662e-02
5.143099999999999454e+02,1.361350392641320385e-02
5.152699999999999818e+02,1.375263211766605993e-02
5.162400000000000091e+02,1.402735091902858680e-02
5.172000000000000455e+02,1.425156022849631728e-02
5.181599999999999682e+02,1.431591170455832028e-02
5.191299999999999955e+02,1.426051460055392101e-02
5.200900000000000318e+02,1.418672540801431403e-02
5.210599999999999454e+02,1.419131718000474392e-02
5.220199999999999818e+02,1.432299520036931992e-02
5.229900000000000091e+02,1.458637207490968458e-02
5.239500000000000455e+02,1.490440436977544941e-02
5.249099999999999682e+02,1.515413093121181255e-02
5.258799999999999955e+02,1.526055837239127799e-02
5.268400000000000318e+02,1.526711685615983818e-02
5.278099999999999454e+02,1.531396793080632562e-02
5.287699999999999818e+02,1.542824138528698513e-02
5.297400000000000091e+02,1.551796010987689309e-02
5.307000000000000455e+02,1.548082592477822983e-02
5.316599999999999682e+02,1.527503370441921603e-02
5.326299999999999955e+02,1.496713914208769140e-02
5.335900000000000318e+02,1.468982028108629587e-02
5.345599999999999454e+02,1.459569312204456529e-02
5.355199999999999818e+02,1.474368401658569805e-02
5.364800000000000182e+02,1.510455896082139697e-02
5.374500000000000455e+02,1.555675266634784677e-02
5.384099999999999682e+02,1.599580857052598434e-02
5.393799999999999955e+02,1.639555107295297826e-02
5.403400000000000318e+02,1.665936962429102539e-02
5.413099999999999454e+02,1.677753900146779220e-02
5.422699999999999818e+02,1.681676073444962616e-02
5.432300000000000182e+02,1.690588777880119853e-02
5.442000000000000455e+02,1.713340966425109038e-02
5.451599999999999682e+02,1.750147227335382277e-02
5.461299999999999955e+02,1.791146084413332285e-02
5.470900000000000318e+02,1.821346360465499886e-02
5.480599999999999454e+02,1.831116584570019815e-02
5.490199999999999818e+02,1.821222190950701897e-02
5.499800000000000182e+02,1.802283839885606212e-02
5.509500000000000455e+02,1.795630770614159086e-02
5.519099999999999682e+02,1.805767253119722193e-02
5.528799999999999955e+02,1.824258927272497111e-02
5.538400000000000318e+02,1.829532381565691576e-02
5.548099999999999454e+02,1.810571529984495234e-02
5.557699999999999818e+02,1.769385585281890022e-02
5.567300000000000182e+02,1.712241357869508790e-02
5.577000000000000455e+02,1.654951293778663540e-02
5.586599999999999682e+02,1.621883451951705579e-02
5.596299999999999955e+02,1.625882710351357271e-02
5.605900000000000318e+02,1.658419706668706056e-02
5.615499999999999545e+02,1.695795147301207631e-02
5.625199999999999818e+02,1.716397286529446758e-02
5.634800000000000182e+02,1.696912672934462393e-02
5.644500000000000455e+02,1.631663259609382813e-02
5.654099999999999682e+02,1.539398226613522547e-02
5.663799999999999955e+02,1.460853508327376871e-02
5.673400000000000318e+02,1.426963147633889678e-02
5.682999999999999545e+02,1.439561769948116687e-02
5.692699999999999818e+02,1.486437845168090202e-02
5.702300000000000182e+02,1.542957891596657971e-02
5.712000000000000455e+02,1.584833852126506584e-02
5.721599999999999682e+02,1.594510740756808695e-02
5.731299999999999955e+02,1.568181386827254345e-02
5.740900000000000318e+02,1.520861551428530530e-02
5.750499999999999545e+02,1.467481993701591492e-02
5.760199999999999818e+02,1.420460915155600384e-02
5.769800000000000182e+02,1.388350595291801617e-02
5.779500000000000455e+02,1.374794867690629953e-02
5.789099999999999682e+02,1.368395970915935352e-02
5.798799999999999955e+02,1.348268425907041962e-02
5.808400000000000318e+02,1.305005350226914364e-02
5.817999999999999545e+02,1.246176084163958843e-02
5.827699999999999818e+02,1.189748956533384465e-02
5.837300000000000182e+02,1.149858041535518731e-02
5.847000000000000455e+02,1.133214326436968004e-02
