# wavenumber, intensity
2.009300000000000068e+02,2.321853998369400804e-02
2.019000000000000057e+02,2.397658191996583296e-02
2.028600000000000136e+02,2.424094535727654154e-02
2.038199999999999932e+02,2.454001804711578028e-02
2.047899999999999920e+02,2.520122337313255786e-02
2.057500000000000000e+02,2.606498694570925229e-02
2.067199999999999989e+02,2.650259143484499924e-02
2.076800000000000068e+02,2.599706058243150819e-02
2.086500000000000057e+02,2.442261361892401547e-02
2.096100000000000136e+02,2.221388770605584387e-02
2.105699999999999932e+02,2.000984169240496366e-02
2.115399999999999920e+02,1.841723468519520374e-02
2.125000000000000000e+02,1.770802647988712133e-02
2.134699999999999989e+02,1.796576005997312792e-02
2.144300000000000068e+02,1.875544218443165115e-02
2.154000000000000057e+02,1.929144325022797216e-02
2.163600000000000136e+02,1.932157434047900371e-02
2.173199999999999932e+02,1.894663980608017259e-02
2.182899999999999920e+02,1.871127139652922419e-02
2.192500000000000000e+02,1.942426082475556467e-02
2.202199999999999989e+02,2.214747044071389837e-02
2.211800000000000068e+02,2.729381656955278887e-02
2.221399999999999864e+02,3.426908765992117689e-02
2.231100000000000136e+02,4.190386846064813459e-02
2.240699999999999932e+02,4.873082404937108952e-02
2.250399999999999920e+02,5.313606744236674256e-02
2.260000000000000000e+02,5.407065688099760986e-02
2.269699999999999989e+02,5.141425452198258167e-02
2.279300000000000068e+02,4.621953247840762669e-02
2.288899999999999864e+02,3.951812027303715918e-02
2.298600000000000136e+02,3.265135162865347856e-02
2.308199999999999932e+02,2.689276955401362357e-02
2.317899999999999920e+02,2.302439199080003399e-02
2.327500000000000000e+02,2.091151923110459721e-02
2.337199999999999989e+02,2.012756828757162816e-02
2.346800000000000068e+02,2.016948390664883781e-02
2.356399999999999864e+02,2.031420470309862336e-02
2.366100000000000136e+02,2.004263489923957184e-02
2.375699999999999932e+02,1.956214829010146164e-02
2.385399999999999920e+02,1.925010414047479898e-02
2.395000000000000000e+02,1.936303214332826469e-02
2.404699999999999989e+02,1.984163661908545581e-02
2.414300000000000068e+02,2.064364586938101376e-02
2.423899999999999864e+02,2.151249628893319582e-02
2.433600000000000136e+02,2.212364704071244706e-02
2.443199999999999932e+02,2.240639095176086629e-02
2.452899999999999920e+02,2.257917418735804621e-02
2.462500000000000000e+02,2.284926880559433673e-02
2.472100000000000080e+02,2.326810282939084304e-02
2.481800000000000068e+02,2.388610386843018421e-02
2.491399999999999864e+02,2.480692490791409563e-02
2.501100000000000136e+02,2.590977028833384849e-02
2.510699999999999932e+02,2.689551645138032673e-02
2.520399999999999920e+02,2.758524203277271797e-02
2.530000000000000000e+02,2.816582083422993973e-02
2.539600000000000080e+02,2.918308849236711869e-02
2.549300000000000068e+02,3.106149151881031079e-02
2.558899999999999864e+02,3.384943974060871524e-02
2.568600000000000136e+02,3.710585265652691783e-02
2.578199999999999932e+02,4.009230660346164987e-02
2.587900000000000205e+02,4.234723804302303884e-02
2.597500000000000000e+02,4.386954482503294811e-02
2.607099999999999795e+02,4.497313627634235561e-02
2.616800000000000068e+02,4.591586467013357431e-02
2.626399999999999864e+02,4.680362120427752209e-02
2.636100000000000136e+02,4.744617475805142093e-02
2.645699999999999932e+02,4.770689262169646588e-02
2.655400000000000205e+02,4.768271314240686565e-02
2.665000000000000000e+02,4.768607046141060124e-02
2.674599999999999795e+02,4.807941938186034714e-02
2.684300000000000068e+02,4.887769827770725023e-02
2.693899999999999864e+02,4.985901888388508119e-02
2.703600000000000136e+02,5.075081098329627810e-02
2.713199999999999932e+02,5.140852334105694421e-02
2.722799999999999727e+02,5.202662611703584572e-02
2.732500000000000000e+02,5.318123864350832175e-02
2.742099999999999795e+02,5.496060075934099121e-02
2.751800000000000068e+02,5.772725204846936714e-02
2.761399999999999864e+02,6.197512535220309898e-02
2.771100000000000136e+02,6.782260855581595527e-02
2.780699999999999932e+02,7.555105516551650913e-02
2.790299999999999727e+02,8.635163518137344008e-02
2.800000000000000000e+02,1.005927041490308899e-01
2.809599999999999795e+02,1.171049485542576818e-01
2.819300000000000068e+02,1.334377459543497346e-01
2.828899999999999864e+02,1.467173330190339464e-01
2.838600000000000136e+02,1.545748668488134137e-01
2.848199999999999932e+02,1.558644503816997429e-01
2.857799999999999727e+02,1.507248697593377984e-01
2.867500000000000000e+02,1.407587361213224753e-01
2.877099999999999795e+02,1.272978707865925485e-01
2.886800000000000068e+02,1.115234735351449541e-01
2.896399999999999864e+02,9.523995072608754109e-02
2.906100000000000136e+02,8.063456177805247704e-02
2.915699999999999932e+02,6.885362765694258425e-02
2.925299999999999727e+02,6.005735013016948870e-02
2.935000000000000000e+02,5.358454082787289519e-02
2.944599999999999795e+02,4.844212852736166919e-02
2.954300000000000068e+02,4.410755839501100811e-02
2.963899999999999864e+02,4.078742424264780037e-02
2.973600000000000136e+02,3.876991290758419889e-02
2.983199999999999932e+02,3.798697933344624689e-02
2.992799999999999727e+02,3.790679366895760571e-02
3.002500000000000000e+02,3.797731432419309411e-02
3.012099999999999795e+02,3.761121394737483581e-02
3.021800000000000068e+02,3.658775729208429972e-02
3.031399999999999864e+02,3.524505012061864007e-02
3.041000000000000227e+02,3.398825979456714802e-02
3.050699999999999932e+02,3.322582621373996320e-02
3.060299999999999727e+02,3.309389035935501877e-02
3.070000000000000000e+02,3.344072854229324099e-02
3.079599999999999795e+02,3.391046494815680434e-02
3.089300000000000068e+02,3.411068324510796446e-02
3.098899999999999864e+02,3.396018039926298332e-02
3.108500000000000227e+02,3.352050725902396694e-02
3.118199999999999932e+02,3.302063976290954550e-02
3.127799999999999727e+02,3.231629797454135117e-02
3.137500000000000000e+02,3.134101376010774154e-02
3.147099999999999795e+02,3.045498675393548682e-02
3.156800000000000068e+02,3.021692231548743848e-02
3.166399999999999864e+02,3.100124629446505270e-02
3.176000000000000227e+02,3.246703820657834832e-02
3.185699999999999932e+02,3.397445748310710251e-02
3.195299999999999727e+02,3.506816349512799358e-02
3.205000000000000000e+02,3.567967032619553253e-02
3.214599999999999795e+02,3.625139801391532440e-02
3.224300000000000068e+02,3.715722981097827060e-02
3.233899999999999864e+02,3.832349121702447597e-02
3.243500000000000227e+02,3.910890039002386243e-02
3.253199999999999932e+02,3.902574739813307464e-02
3.262799999999999727e+02,3.823311490242878308e-02
3.272500000000000000e+02,3.720243492443305738e-02
3.282099999999999795e+02,3.644483384823252875e-02
3.291700000000000159e+02,3.607312098358463753e-02
3.301399999999999864e+02,3.602089602130403162e-02
3.311000000000000227e+02,3.617714700423124013e-02
3.320699999999999932e+02,3.643669489307189285e-02
3.330299999999999727e+02,3.674429652967334953e-02
3.340000000000000000e+02,3.695896147203456272e-02
3.349599999999999795e+02,3.705618807389075842e-02
3.359200000000000159e+02,3.716124842008899920e-02
3.368899999999999864e+02,3.725555856301258212e-02
3.378500000000000227e+02,3.740150020273633885e-02
3.388199999999999932e+02,3.745516643832665776e-02
3.397799999999999727e+02,3.747681945028523420e-02
3.407500000000000000e+02,3.749789595291992683e-02
3.417099999999999795e+02,3.755980288061032402e-02
3.426700000000000159e+02,3.786001163294083066e-02
3.436399999999999864e+02,3.835238450784480418e-02
3.446000000000000227e+02,3.891663453051098093e-02
3.455699999999999932e+02,3.946002848057809931e-02
3.465299999999999727e+02,4.001961556018354682e-02
3.475000000000000000e+02,4.085343456023188963e-02
3.484599999999999795e+02,4.237341834878965985e-02
3.494200000000000159e+02,4.496938896573707961e-02
3.503899999999999864e+02,4.847075051967644072e-02
3.513500000000000227e+02,5.233365124431300919e-02
3.523199999999999932e+02,5.545154931709159185e-02
3.532799999999999727e+02,5.709995903562140040e-02
3.542400000000000091e+02,5.692531062280000581e-02
3.552099999999999795e+02,5.499486915179851304e-02
3.561700000000000159e+02,5.192873822507283049e-02
3.571399999999999864e+02,4.853888035683374264e-02
3.581000000000000227e+02,4.564616004349881379e-02
3.590699999999999932e+02,4.374807091926059821e-02
3.600299999999999727e+02,4.301359804064142089e-02
3.609900000000000091e+02,4.316496565047220346e-02
3.619599999999999795e+02,4.362240884281193276e-02
3.629200000000000159e+02,4.371263255199873271e-02
3.638899999999999864e+02,4.289142893244946020e-02
3.648500000000000227e+02,4.132030537563249895e-02
3.658199999999999932e+02,3.925011126206061352e-02
3.667799999999999727e+02,3.709769674520988630e-02
3.677400000000000091e+02,3.509602246039632972e-02
3.687099999999999795e+02,3.338760490371368850e-02
3.696700000000000159e+02,3.198200734747569385e-02
3.706399999999999864e+02,3.072820130498313609e-02
3.716000000000000227e+02,2.955815867601854427e-02
3.725699999999999932e+02,2.837946840719580976e-02
3.735299999999999727e+02,2.725680127972865754e-02
3.744900000000000091e+02,2.621372635126964848e-02
3.754599999999999795e+02,2.525700912829606168e-02
3.764200000000000159e+02,2.443531378020574393e-02
3.773899999999999864e+02,2.377081895981136145e-02
3.783500000000000227e+02,2.328850108576207764e-02
3.793100000000000023e+02,2.284404630936626851e-02
3.802799999999999727e+02,2.256150587219689363e-02
3.812400000000000091e+02,2.258146326849693603e-02
3.822099999999999795e+02,2.300775800119059591e-02
3.831700000000000159e+02,2.364425820706373554e-02
3.841399999999999864e+02,2.409220595171604473e-02
3.851000000000000227e+02,2.404783168993422995e-02
3.860600000000000023e+02,2.340363338897175072e-02
3.870299999999999727e+02,2.248767876642759553e-02
3.879900000000000091e+02,2.183205201592688244e-02
3.889599999999999795e+02,2.190245397806606445e-02
3.899200000000000159e+02,2.265744380615243928e-02
3.908899999999999864e+02,2.355854483552853249e-02
3.918500000000000227e+02,2.425966495414577304e-02
3.928100000000000023e+02,2.442463140155759840e-02
3.937799999999999727e+02,2.442334273365718775e-02
3.947400000000000091e+02,2.468375538648360373e-02
3.957099999999999795e+02,2.560856112276488003e-02
3.966700000000000159e+02,2.739109403987879249e-02
3.976399999999999864e+02,2.987284798607241915e-02
3.986000000000000227e+02,3.286052277628118135e-02
3.995600000000000023e+02,3.622323383782842521e-02
4.005299999999999727e+02,4.025978256204815892e-02
4.014900000000000091e+02,4.536855384789585666e-02
4.024599999999999795e+02,5.210504834123998869e-02
4.034200000000000159e+02,6.171606919190349150e-02
4.043799999999999955e+02,7.444790457427795383e-02
4.053500000000000227e+02,9.021167031554692961e-02
4.063100000000000023e+02,1.080839849965821997e-01
4.072799999999999727e+02,1.261939062998376493e-01
4.082400000000000091e+02,1.416622618810898515e-01
4.092099999999999795e+02,1.523080830557993759e-01
4.101700000000000159e+02,1.567164124692934091e-01
4.111299999999999955e+02,1.545038375088806093e-01
4.121000000000000227e+02,1.464770134117608091e-01
4.130600000000000023e+02,1.340734153085510472e-01
4.140299999999999727e+02,1.191839768254106535e-01
4.149900000000000091e+02,1.037701013752649337e-01
4.159599999999999795e+02,8.894158636273309659e-02
4.169200000000000159e+02,7.595690077336850199e-02
4.178799999999999955e+02,6.550804231354592777e-02
4.188500000000000227e+02,5.732400073257355039e-02
4.198100000000000023e+02,5.061665387239849129e-02
4.207799999999999727e+02,4.515509279265161879e-02
4.217400000000000091e+02,4.047419316206025963e-02
4.227099999999999795e+02,3.663981269279892317e-02
4.236700000000000159e+02,3.377800345291771811e-02
4.246299999999999955e+02,3.177699045821097412e-02
4.256000000000000227e+02,3.016228957897156351e-02
4.265600000000000023e+02,2.845619501574114460e-02
4.275299999999999727e+02,2.635030819255873916e-02
4.284900000000000091e+02,2.393149549960723113e-02
4.294499999999999886e+02,2.155291976623095393e-02
4.304200000000000159e+02,1.965942576042723280e-02
4.313799999999999955e+02,1.825647336461637057e-02
4.323500000000000227e+02,1.720432689238461307e-02
4.333100000000000023e+02,1.633369607639116247e-02
4.342799999999999727e+02,1.563576371521198383e-02
4.352400000000000091e+02,1.519030852557760360e-02
4.361999999999999886e+02,1.502788550165355327e-02
4.371700000000000159e+02,1.506471427375532038e-02
4.381299999999999955e+02,1.520431431091647835e-02
4.391000000000000227e+02,1.530103222807514991e-02
4.400600000000000023e+02,1.537550366779475743e-02
4.410299999999999727e+02,1.538204874423637798e-02
4.419900000000000091e+02,1.545577411306625973e-02
4.429499999999999886e+02,1.551707061911963142e-02
4.439200000000000159e+02,1.545409545356438152e-02
4.448799999999999955e+02,1.506556208158458740e-02
4.458500000000000227e+02,1.430752014531293421e-02
4.468100000000000023e+02,1.334987033372722967e-02
4.477799999999999727e+02,1.230082683815042661e-02
4.487400000000000091e+02,1.124479740606075008e-02
4.496999999999999886e+02,1.031390440956552607e-02
4.506700000000000159e+02,9.616362039987755989e-03
4.516299999999999955e+02,9.262029235839106672e-03
4.526000000000000227e+02,9.178113216901791563e-03
4.535600000000000023e+02,9.192254651493321493e-03
4.545299999999999727e+02,9.013451980308652411e-03
4.554900000000000091e+02,8.498696978713114053e-03
4.564499999999999886e+02,7.699909398168677289e-03
4.574200000000000159e+02,7.068818206245910257e-03
4.583799999999999955e+02,6.953838508445526513e-03
4.593500000000000227e+02,7.363617944625795372e-03
4.603100000000000023e+02,7.967053645159026878e-03
4.612699999999999818e+02,8.412000150095931550e-03
4.622400000000000091e+02,8.455187480917000092e-03
4.631999999999999886e+02,8.289864954217029264e-03
4.641700000000000159e+02,8.300801675214040942e-03
4.651299999999999955e+02,8.589463284910415011e-03
4.661000000000000227e+02,9.079326648639826289e-03
4.670600000000000023e+02,9.482187972933649872e-03
4.680199999999999818e+02,9.423672276560234040e-03
4.689900000000000091e+02,9.005075638955972739e-03
4.699499999999999886e+02,8.319996044467876939e-03
4.709200000000000159e+02,7.650193947062475762e-03
4.718799999999999955e+02,7.133743329808366063e-03
4.728500000000000227e+02,7.357869807543695496e-03
4.738100000000000023e+02,7.977261251423015467e-03
4.747699999999999818e+02,8.431465817855372802e-03
4.757400000000000091e+02,9.477864153005371300e-03
4.766999999999999886e+02,1.313471366282574493e-02
4.776700000000000159e+02,2.126468206044930878e-02
4.786299999999999955e+02,3.400072256965642331e-02
4.796000000000000227e+02,5.028231237686274502e-02
4.805600000000000023e+02,6.718459925200591376e-02
4.815199999999999818e+02,8.133369802634926593e-02
4.824900000000000091e+02,9.061921153905817816e-02
4.834499999999999886e+02,9.432136789927239584e-02
4.844200000000000159e+02,9.225593846570091794e-02
4.853799999999999955e+02,8.426753701940223329e-02
4.863399999999999750e+02,7.179484257811052927e-02
4.873100000000000023e+02,5.790992072335571228e-02
4.882699999999999818e+02,4.572439574998016926e-02
4.892400000000000091e+02,3.690826256384611287e-02
4.901999999999999886e+02,3.150140204524087828e-02
4.911700000000000159e+02,2.859977974969940551e-02
4.921299999999999955e+02,2.632679000337581968e-02
4.930899999999999750e+02,2.415687673292981133e-02
4.940600000000000023e+02,2.238704397709767244e-02
4.950199999999999818e+02,2.119085495467967067e-02
4.959900000000000091e+02,2.024366709170669770e-02
4.969499999999999886e+02,1.961015116939242298e-02
4.979200000000000159e+02,1.942292128838508242e-02
4.988799999999999955e+02,1.964340219245476471e-02
4.998399999999999750e+02,2.011120559646767739e-02
5.008100000000000023e+02,2.082489022711405194e-02
5.017699999999999818e+02,2.163502147641367668e-02
5.027400000000000091e+02,2.260552405469054907e-02
5.036999999999999886e+02,2.379259066486608121e-02
5.046700000000000159e+02,2.539457442666708323e-02
5.056299999999999955e+02,2.733488438080086680e-02
5.065899999999999750e+02,2.962435551132495612e-02
5.075600000000000023e+02,3.223989353297108951e-02
5.085199999999999818e+02,3.500278055533749544e-02
5.094900000000000091e+02,3.752551753199610818e-02
5.104499999999999886e+02,3.918281227657615523e-02
5.114100000000000250e+02,3.958016284998006062e-02
5.123799999999999955e+02,3.878912423299484685e-02
5.133400000000000318e+02,3.717313468585495967e-02
5.143099999999999454e+02,3.543033004361866717e-02
5.152699999999999818e+02,3.399761959300175856e-02
5.162400000000000091e+02,3.317672118427090339e-02
5.172000000000000455e+02,3.293716460404346597e-02
5.181599999999999682e+02,3.305592552476209478e-02
5.191299999999999955e+02,3.322577534527018650e-02
5.200900000000000318e+02,3.328006895865414511e-02
5.210599999999999454e+02,3.318267279523218205e-02
5.220199999999999818e+02,3.304074976461899432e-02
5.229900000000000091e+02,3.299622289742775577e-02
5.239500000000000455e+02,3.307574727180955659e-02
5.249099999999999682e+02,3.343484475595850242e-02
5.258799999999999955e+02,3.408028085635184112e-02
5.268400000000000318e+02,3.496659611718617305e-02
5.278099999999999454e+02,3.618767677747058292e-02
5.287699999999999818e+02,3.865954528437536009e-02
5.297400000000000091e+02,4.311341893445526374e-02
5.307000000000000455e+02,4.958254875077285073e-02
5.316599999999999682e+02,5.716834321512680867e-02
5.326299999999999955e+02,6.446103355675933400e-02
5.335900000000000318e+02,6.972705623877289982e-02
5.345599999999999454e+02,7.218817454240321341e-02
5.355199999999999818e+02,7.173146046479662863e-02
5.364800000000000182e+02,6.888557305594832092e-02
5.374500000000000455e+02,6.412358908456924911e-02
5.384099999999999682e+02,5.792679209915690269e-02
5.393799999999999955e+02,5.045741860591279604e-02
5.403400000000000318e+02,4.266986283435843935e-02
5.413099999999999454e+02,3.549756120447665475e-02
5.422699999999999818e+02,2.985358579219224429e-02
5.432300000000000182e+02,2.629847322187938916e-02
5.442000000000000455e+02,2.472750227047157759e-02
5.451599999999999682e+02,2.442042627472416558e-02
5.461299999999999955e+02,2.476183848755541400e-02
5.470900000000000318e+02,2.469360691345912420e-02
5.480599999999999454e+02,2.379525278144993192e-02
5.490199999999999818e+02,2.233061388798430330e-02
5.499800000000000182e+02,2.095419787722836713e-02
5.509500000000000455e+02,1.999273293041097313e-02
5.519099999999999682e+02,1.969216809879203653e-02
5.528799999999999955e+02,1.984292528698581443e-02
5.538400000000000318e+02,1.988911385752237942e-02
5.548099999999999454e+02,1.951139851344366530e-02
5.557699999999999818e+02,1.866710060862615192e-02
5.567300000000000182e+02,1.791702806594923023e-02
5.577000000000000455e+02,1.776540611376949824e-02
5.586599999999999682e+02,1.828105979166400746e-02
5.596299999999999955e+02,1.919947305691294473e-02
5.605900000000000318e+02,1.999322465895195244e-02
5.615499999999999545e+02,2.043844246239421777e-02
5.625199999999999818e+02,2.063131874354415252e-02
5.634800000000000182e+02,2.073882077629048484e-02
5.644500000000000455e+02,2.079991380846481913e-02
5.654099999999999682e+02,2.069169961714192527e-02
5.663799999999999955e+02,2.048976874837588405e-02
5.673400000000000318e+02,2.031286516672857131e-02
5.682999999999999545e+02,2.053783945229307670e-02
5.692699999999999818e+02,2.121717090969891389e-02
5.702300000000000182e+02,2.210419832910977961e-02
5.712000000000000455e+02,2.283853555847625838e-02
5.721599999999999682e+02,2.323444485857034322e-02
5.731299999999999955e+02,2.324456768405130241e-02
5.740900000000000318e+02,2.272664188117434411e-02
5.750499999999999545e+02,2.172119266417670003e-02
5.760199999999999818e+02,2.034765920004025577e-02
5.769800000000000182e+02,1.906248426786609149e-02
5.779500000000000455e+02,1.839800640362813239e-02
5.789099999999999682e+02,1.831507384177269437e-02
5.798799999999999955e+02,1.839807422825445390e-02
5.808400000000000318e+02,1.824239975465128880e-02
5.817999999999999545e+02,1.775826757184751151e-02
5.827699999999999818e+02,1.725580578377563026e-02
5.837300000000000182e+02,1.711746050220169790e-02
5.847000000000000455e+02,1.746675732784468832e-02
