# wavenumber, intensity
2.009300000000000068e+02,8.972075267509031782e-03
2.019000000000000057e+02,8.841004950557604380e-03
2.028600000000000136e+02,8.668180165547819532e-03
2.038199999999999932e+02,8.514913659700019261e-03
2.047899999999999920e+02,8.448430433832226916e-03
2.057500000000000000e+02,8.523836905107582546e-03
2.067199999999999989e+02,8.703004085402176945e-03
2.076800000000000068e+02,8.876513585750707425e-03
2.086500000000000057e+02,8.910104140155314725e-03
2.096100000000000136e+02,8.761231224397550421e-03
2.105699999999999932e+02,8.487573327361582279e-03
2.115399999999999920e+02,8.227394666256148195e-03
2.125000000000000000e+02,8.122163574939044242e-03
2.134699999999999989e+02,8.241110919034641200e-03
2.144300000000000068e+02,8.559007571832189659e-03
2.154000000000000057e+02,8.720578445762296529e-03
2.163600000000000136e+02,8.576691662214688469e-03
2.173199999999999932e+02,8.315617604127942958e-03
2.182899999999999920e+02,8.318725158357400881e-03
2.192500000000000000e+02,8.949786905393965902e-03
2.202199999999999989e+02,1.020231121712274029e-02
2.211800000000000068e+02,1.174409703504851119e-02
2.221399999999999864e+02,1.320003008358279842e-02
2.231100000000000136e+02,1.437587066657754729e-02
2.240699999999999932e+02,1.531885975320250275e-02
2.250399999999999920e+02,1.594565958617576509e-02
2.260000000000000000e+02,1.598147107623031429e-02
2.269699999999999989e+02,1.508807995965263417e-02
2.279300000000000068e+02,1.340070873743517792e-02
2.288899999999999864e+02,1.133594524436773790e-02
2.298600000000000136e+02,9.461418496237250161e-03
2.308199999999999932e+02,8.173025634842286807e-03
2.317899999999999920e+02,7.421410096184527169e-03
2.327500000000000000e+02,6.962655208452754943e-03
2.337199999999999989e+02,6.598676335520125072e-03
2.346800000000000068e+02,6.290971407187106318e-03
2.356399999999999864e+02,6.110645477857767731e-03
2.366100000000000136e+02,6.005892809437596465e-03
2.375699999999999932e+02,5.942631257022446163e-03
2.385399999999999920e+02,5.906385236079947365e-03
2.395000000000000000e+02,5.853741160615639691e-03
2.404699999999999989e+02,5.771189070292738997e-03
2.414300000000000068e+02,5.676312103873129046e-03
2.423899999999999864e+02,5.592904119376835778e-03
2.433600000000000136e+02,5.553471538588810631e-03
2.443199999999999932e+02,5.522211649856377871e-03
2.452899999999999920e+02,5.487949547715777025e-03
2.462500000000000000e+02,5.467934791661307505e-03
2.472100000000000080e+02,5.496666500681590684e-03
2.481800000000000068e+02,5.569698414275940472e-03
2.491399999999999864e+02,5.609468963532421651e-03
2.501100000000000136e+02,5.553331084160373875e-03
2.510699999999999932e+02,5.398396681974712563e-03
2.520399999999999920e+02,5.201483962485318677e-03
2.530000000000000000e+02,5.045215243229319961e-03
2.539600000000000080e+02,5.013643721233727174e-03
2.549300000000000068e+02,5.127025558601934138e-03
2.558899999999999864e+02,5.288987071411128081e-03
2.568600000000000136e+02,5.436578340509285769e-03
2.578199999999999932e+02,5.484236283763551691e-03
2.587900000000000205e+02,5.417213186186427103e-03
2.597500000000000000e+02,5.258170491968525324e-03
2.607099999999999795e+02,5.046084305005377885e-03
2.616800000000000068e+02,4.861470126407333066e-03
2.626399999999999864e+02,4.761255891706527021e-03
2.636100000000000136e+02,4.744844669582038051e-03
2.645699999999999932e+02,4.822511579315330761e-03
2.655400000000000205e+02,4.954753812904163363e-03
2.665000000000000000e+02,5.067920579428810551e-03
2.674599999999999795e+02,5.125204040232957114e-03
2.684300000000000068e+02,5.111514122659747972e-03
2.693899999999999864e+02,5.028988367542179712e-03
2.703600000000000136e+02,4.917937195846090910e-03
2.713199999999999932e+02,4.802237860408408582e-03
2.722799999999999727e+02,4.704841492678439249e-03
2.732500000000000000e+02,4.625971941901536356e-03
2.742099999999999795e+02,4.608432695148541140e-03
2.751800000000000068e+02,4.695172083119663123e-03
2.761399999999999864e+02,4.901547919726021926e-03
2.771100000000000136e+02,5.154383447743926365e-03
2.780699999999999932e+02,5.367180685251124114e-03
2.790299999999999727e+02,5.454253652489866010e-03
2.800000000000000000e+02,5.389126689696853607e-03
2.809599999999999795e+02,5.249225300556470929e-03
2.819300000000000068e+02,5.146855968219090499e-03
2.828899999999999864e+02,5.157903586857029259e-03
2.838600000000000136e+02,5.267796009518366934e-03
2.848199999999999932e+02,5.402820996470918818e-03
2.857799999999999727e+02,5.511076247200636866e-03
2.867500000000000000e+02,5.552009934692750392e-03
2.877099999999999795e+02,5.519068982019773896e-03
2.886800000000000068e+02,5.472424944170896019e-03
2.896399999999999864e+02,5.483507676415959146e-03
2.906100000000000136e+02,5.547221316522675874e-03
2.915699999999999932e+02,5.632363035370169940e-03
2.925299999999999727e+02,5.687342165707511693e-03
2.935000000000000000e+02,5.633701741641373821e-03
2.944599999999999795e+02,5.475988975292889194e-03
2.954300000000000068e+02,5.256673774465335514e-03
2.963899999999999864e+02,5.077989406268510787e-03
2.973600000000000136e+02,4.982116091247050689e-03
2.983199999999999932e+02,4.990143939673276526e-03
2.992799999999999727e+02,5.045232800032843114e-03
3.002500000000000000e+02,5.059747887373234644e-03
3.012099999999999795e+02,4.956276865612719434e-03
3.021800000000000068e+02,4.746293105875487583e-03
3.031399999999999864e+02,4.545706625241880024e-03
3.041000000000000227e+02,4.454481473962022126e-03
3.050699999999999932e+02,4.519546987942573389e-03
3.060299999999999727e+02,4.733643428912931266e-03
3.070000000000000000e+02,5.011958268092286603e-03
3.079599999999999795e+02,5.231734335013229001e-03
3.089300000000000068e+02,5.302497031747926970e-03
3.098899999999999864e+02,5.272435394858221436e-03
3.108500000000000227e+02,5.211960985007667302e-03
3.118199999999999932e+02,5.156174241706711417e-03
3.127799999999999727e+02,5.083515410187923814e-03
3.137500000000000000e+02,4.984819838994786548e-03
3.147099999999999795e+02,4.908807657996707742e-03
3.156800000000000068e+02,4.920763841218703076e-03
3.166399999999999864e+02,5.083541745393236298e-03
3.176000000000000227e+02,5.318030413694527919e-03
3.185699999999999932e+02,5.507907244158672701e-03
3.195299999999999727e+02,5.571304861801427977e-03
3.205000000000000000e+02,5.573789149504684674e-03
3.214599999999999795e+02,5.627109161905889667e-03
3.224300000000000068e+02,5.796541094628348233e-03
3.233899999999999864e+02,6.006669697994943165e-03
3.243500000000000227e+02,6.116698185883897090e-03
3.253199999999999932e+02,6.058835350562425705e-03
3.262799999999999727e+02,5.885799883909929343e-03
3.272500000000000000e+02,5.712834644471634013e-03
3.282099999999999795e+02,5.607809845596329994e-03
3.291700000000000159e+02,5.547072083692451520e-03
3.301399999999999864e+02,5.483393557192855691e-03
3.311000000000000227e+02,5.415597960259233533e-03
3.320699999999999932e+02,5.388858948442595137e-03
3.330299999999999727e+02,5.459748932003045431e-03
3.340000000000000000e+02,5.622373214146487823e-03
3.349599999999999795e+02,5.777263724323282272e-03
3.359200000000000159e+02,5.853477808562289331e-03
3.368899999999999864e+02,5.827243554847927332e-03
3.378500000000000227e+02,5.734144214788429277e-03
3.388199999999999932e+02,5.632617609021772602e-03
3.397799999999999727e+02,5.592162344426568343e-03
3.407500000000000000e+02,5.646737668282098693e-03
3.417099999999999795e+02,5.760536479734778940e-03
3.426700000000000159e+02,5.871741273461983726e-03
3.436399999999999864e+02,5.924894496229444682e-03
3.446000000000000227e+02,5.900999686588978901e-03
3.455699999999999932e+02,5.762783750590035926e-03
3.465299999999999727e+02,5.517374750476572616e-03
3.475000000000000000e+02,5.226787705611212788e-03
3.484599999999999795e+02,5.049608833319370674e-03
3.494200000000000159e+02,5.110311481616108299e-03
3.503899999999999864e+02,5.423603862680955248e-03
3.513500000000000227e+02,5.861062347698662613e-03
3.523199999999999932e+02,6.218970955801667727e-03
3.532799999999999727e+02,6.323811408239658587e-03
3.542400000000000091e+02,6.122689445097606945e-03
3.552099999999999795e+02,5.721994906727311501e-03
3.561700000000000159e+02,5.302786719006616703e-03
3.571399999999999864e+02,5.013854402876419605e-03
3.581000000000000227e+02,4.897588860524030967e-03
3.590699999999999932e+02,4.918494624358985337e-03
3.600299999999999727e+02,5.033575082471298222e-03
3.609900000000000091e+02,5.145688440782564786e-03
3.619599999999999795e+02,5.221661118972665758e-03
3.629200000000000159e+02,5.253390652200246209e-03
3.638899999999999864e+02,5.282657843729015104e-03
3.648500000000000227e+02,5.336759133888522612e-03
3.658199999999999932e+02,5.415431170625426179e-03
3.667799999999999727e+02,5.499774054911105853e-03
3.677400000000000091e+02,5.568386043210119332e-03
3.687099999999999795e+02,5.645671092466061393e-03
3.696700000000000159e+02,5.740490999274094029e-03
3.706399999999999864e+02,5.850817952823453294e-03
3.716000000000000227e+02,5.916853480200535281e-03
3.725699999999999932e+02,5.879255585384193274e-03
3.735299999999999727e+02,5.717715435860379856e-03
3.744900000000000091e+02,5.439663948734390492e-03
3.754599999999999795e+02,5.162319122951531183e-03
3.764200000000000159e+02,4.991289521105359700e-03
3.773899999999999864e+02,4.971814636760237167e-03
3.783500000000000227e+02,5.051197724041187574e-03
3.793100000000000023e+02,5.140658416563619743e-03
3.802799999999999727e+02,5.240385449965743667e-03
3.812400000000000091e+02,5.391150111306732863e-03
3.822099999999999795e+02,5.637265772763327097e-03
3.831700000000000159e+02,5.927966936851790380e-03
3.841399999999999864e+02,6.074943717825492806e-03
3.851000000000000227e+02,5.934462954167813060e-03
3.860600000000000023e+02,5.550434211573617924e-03
3.870299999999999727e+02,5.149722116399744684e-03
3.879900000000000091e+02,4.958392460441264811e-03
3.889599999999999795e+02,5.099957356718581337e-03
3.899200000000000159e+02,5.470638539408947086e-03
3.908899999999999864e+02,5.816911375954857653e-03
3.918500000000000227e+02,5.944790743859939934e-03
3.928100000000000023e+02,5.836017567425342591e-03
3.937799999999999727e+02,5.650262196596124442e-03
3.947400000000000091e+02,5.557777344661069506e-03
3.957099999999999795e+02,5.583585845889167155e-03
3.966700000000000159e+02,5.678344303884762939e-03
3.976399999999999864e+02,5.741412731460816821e-03
3.986000000000000227e+02,5.727648197472508078e-03
3.995600000000000023e+02,5.673862929776998451e-03
4.005299999999999727e+02,5.620933556254855377e-03
4.014900000000000091e+02,5.579060579772469886e-03
4.024599999999999795e+02,5.496016898950003247e-03
4.034200000000000159e+02,5.343202480793806698e-03
4.043799999999999955e+02,5.180780101891252661e-03
4.053500000000000227e+02,5.086710748435215208e-03
4.063100000000000023e+02,5.111878426333506947e-03
4.072799999999999727e+02,5.211478172909831709e-03
4.082400000000000091e+02,5.274296416035203182e-03
4.092099999999999795e+02,5.250647401644542925e-03
4.101700000000000159e+02,5.170044116516408876e-03
4.111299999999999955e+02,5.110241254401891656e-03
4.121000000000000227e+02,5.100896645708904477e-03
4.130600000000000023e+02,5.136124372045129671e-03
4.140299999999999727e+02,5.170074840922620797e-03
4.149900000000000091e+02,5.180187559771202641e-03
4.159599999999999795e+02,5.217754730181331860e-03
4.169200000000000159e+02,5.290295053276101826e-03
4.178799999999999955e+02,5.397194040931044268e-03
4.188500000000000227e+02,5.491553081645732422e-03
4.198100000000000023e+02,5.491417016418186428e-03
4.207799999999999727e+02,5.373452853321743043e-03
4.217400000000000091e+02,5.194377846245809560e-03
4.227099999999999795e+02,5.080662429610001765e-03
4.236700000000000159e+02,5.102081729948964618e-03
4.246299999999999955e+02,5.248913667293282279e-03
4.256000000000000227e+02,5.436139420420360406e-03
4.265600000000000023e+02,5.541287116920569356e-03
4.275299999999999727e+02,5.510325693848613926e-03
4.284900000000000091e+02,5.359947282185864408e-03
4.294499999999999886e+02,5.202295964649798418e-03
4.304200000000000159e+02,5.131265526660864530e-03
4.313799999999999955e+02,5.176092435341615380e-03
4.323500000000000227e+02,5.307579726377511728e-03
4.333100000000000023e+02,5.469220827521804017e-03
4.342799999999999727e+02,5.592197458033690109e-03
4.352400000000000091e+02,5.643871520101524306e-03
4.361999999999999886e+02,5.670215503838126753e-03
4.371700000000000159e+02,5.719040974528888897e-03
4.381299999999999955e+02,5.825215744037126088e-03
4.391000000000000227e+02,5.973614626098877958e-03
4.400600000000000023e+02,6.142102880630217164e-03
4.410299999999999727e+02,6.285199608017896442e-03
4.419900000000000091e+02,6.354044223964035350e-03
4.429499999999999886e+02,6.362001845176051482e-03
4.439200000000000159e+02,6.355606779480573593e-03
4.448799999999999955e+02,6.360777258127968403e-03
4.458500000000000227e+02,6.402593174998772244e-03
4.468100000000000023e+02,6.445747798140777363e-03
4.477799999999999727e+02,6.447512256898234317e-03
4.487400000000000091e+02,6.421760815281674951e-03
4.496999999999999886e+02,6.430236362198587727e-03
4.506700000000000159e+02,6.509421935439494572e-03
4.516299999999999955e+02,6.656394327212259397e-03
4.526000000000000227e+02,6.749243482821097595e-03
4.535600000000000023e+02,6.681333766664385859e-03
4.545299999999999727e+02,6.423235586780435234e-03
4.554900000000000091e+02,6.062574949719970463e-03
4.564499999999999886e+02,5.734749924511122095e-03
4.574200000000000159e+02,5.588637816112582493e-03
4.583799999999999955e+02,5.623220329918083259e-03
4.593500000000000227e+02,5.746460312483299762e-03
4.603100000000000023e+02,5.863085769308602584e-03
4.612699999999999818e+02,5.898374944457288049e-03
4.622400000000000091e+02,5.839858118203310709e-03
4.631999999999999886e+02,5.733779911114623463e-03
4.641700000000000159e+02,5.635545206014815067e-03
4.651299999999999955e+02,5.600435988102591030e-03
4.661000000000000227e+02,5.616307338517706992e-03
4.670600000000000023e+02,5.645965168925615001e-03
4.680199999999999818e+02,5.641584746438259995e-03
4.689900000000000091e+02,5.589748283937550841e-03
4.699499999999999886e+02,5.492220240180913267e-03
4.709200000000000159e+02,5.386080584279776158e-03
4.718799999999999955e+02,5.315146708710413899e-03
4.728500000000000227e+02,5.339037129149981978e-03
4.738100000000000023e+02,5.444663248547084583e-03
4.747699999999999818e+02,5.583129368996739457e-03
4.757400000000000091e+02,5.776807247430862380e-03
4.766999999999999886e+02,6.102547402217346935e-03
4.776700000000000159e+02,6.653168264558779500e-03
4.786299999999999955e+02,7.368994259166483651e-03
4.796000000000000227e+02,8.164400855095167026e-03
4.805600000000000023e+02,8.870596942952139671e-03
4.815199999999999818e+02,9.274780896029326954e-03
4.824900000000000091e+02,9.262280451897086930e-03
4.834499999999999886e+02,8.869622540354804921e-03
4.844200000000000159e+02,8.222022284367833805e-03
4.853799999999999955e+02,7.423911940691436256e-03
4.863399999999999750e+02,6.599505894488200824e-03
4.873100000000000023e+02,5.908544722917413380e-03
4.882699999999999818e+02,5.442679329745174488e-03
4.892400000000000091e+02,5.179358000803115612e-03
4.901999999999999886e+02,4.997776760019483760e-03
4.911700000000000159e+02,4.871933981327032821e-03
4.921299999999999955e+02,4.787757886675157899e-03
4.930899999999999750e+02,4.729737040121631195e-03
4.940600000000000023e+02,4.733318628047148389e-03
4.950199999999999818e+02,4.775481291788215808e-03
4.959900000000000091e+02,4.815686371932740260e-03
4.969499999999999886e+02,4.859051676717430872e-03
4.979200000000000159e+02,4.924832630442924075e-03
4.988799999999999955e+02,5.033364400828617934e-03
4.998399999999999750e+02,5.143941538828678689e-03
5.008100000000000023e+02,5.217614275752879491e-03
5.017699999999999818e+02,5.236812640441976772e-03
5.027400000000000091e+02,5.209735660156872804e-03
5.036999999999999886e+02,5.178541609437756384e-03
5.046700000000000159e+02,5.143682575976222561e-03
5.056299999999999955e+02,5.092956581300473080e-03
5.065899999999999750e+02,5.007700743229866885e-03
5.075600000000000023e+02,4.934958516894179074e-03
5.085199999999999818e+02,4.945813010692997995e-03
5.094900000000000091e+02,5.060524775930602161e-03
5.104499999999999886e+02,5.217219247672826195e-03
5.114100000000000250e+02,5.308418063747347322e-03
5.123799999999999955e+02,5.280072604405321168e-03
5.133400000000000318e+02,5.147128098674240600e-03
5.143099999999999454e+02,5.012739545850602128e-03
5.152699999999999818e+02,4.976835882577424972e-03
5.162400000000000091e+02,5.069026658052855176e-03
5.172000000000000455e+02,5.225229539295496786e-03
5.181599999999999682e+02,5.340520679050505572e-03
5.191299999999999955e+02,5.334722544675975404e-03
5.200900000000000318e+02,5.216863722400851347e-03
5.210599999999999454e+02,5.056118018237943344e-03
5.220199999999999818e+02,4.937543756217864337e-03
5.229900000000000091e+02,4.887182065215887709e-03
5.239500000000000455e+02,4.879448293249222419e-03
5.249099999999999682e+02,4.869208287574867434e-03
5.258799999999999955e+02,4.813390819867714374e-03
5.268400000000000318e+02,4.709559883634274573e-03
5.278099999999999454e+02,4.600479463137414904e-03
5.287699999999999818e+02,4.524116146068182624e-03
5.297400000000000091e+02,4.501665383520233980e-03
5.307000000000000455e+02,4.513582063934245409e-03
5.316599999999999682e+02,4.539689030822842940e-03
5.326299999999999955e+02,4.565835500519438254e-03
5.335900000000000318e+02,4.562982519941501461e-03
5.345599999999999454e+02,4.537213521521373839e-03
5.355199999999999818e+02,4.512822732180438341e-03
5.364800000000000182e+02,4.512366255287965540e-03
5.374500000000000455e+02,4.529282235514697080e-03
5.384099999999999682e+02,4.581307433653643117e-03
5.393799999999999955e+02,4.649063527779267492e-03
5.403400000000000318e+02,4.707422342801253698e-03
5.413099999999999454e+02,4.733656596515641718e-03
5.422699999999999818e+02,4.737830726561215004e-03
5.432300000000000182e+02,4.780853673676538004e-03
5.442000000000000455e+02,4.893884374973610576e-03
5.451599999999999682e+02,5.060880301202632520e-03
5.461299999999999955e+02,5.253618890646456589e-03
5.470900000000000318e+02,5.412534298038593900e-03
5.480599999999999454e+02,5.492957625930283867e-03
5.490199999999999818e+02,5.490815695896387842e-03
5.499800000000000182e+02,5.427418078253683741e-03
5.509500000000000455e+02,5.375318263699608613e-03
5.519099999999999682e+02,5.383043257264478500e-03
5.528799999999999955e+02,5.454569674953854350e-03
5.538400000000000318e+02,5.519455231697981482e-03
5.548099999999999454e+02,5.522536450722173758e-03
5.557699999999999818e+02,5.423494132658798934e-03
5.567300000000000182e+02,5.267528268264178720e-03
5.577000000000000455e+02,5.154339555735073380e-03
5.586599999999999682e+02,5.150472669751718184e-03
5.596299999999999955e+02,5.277733160331366837e-03
5.605900000000000318e+02,5.458067868062499092e-03
5.615499999999999545e+02,5.582233972015335222e-03
5.625199999999999818e+02,5.617452919949789299e-03
5.634800000000000182e+02,5.537674804588822892e-03
5.644500000000000455e+02,5.393972367478449062e-03
5.654099999999999682e+02,5.232217147111043777e-03
5.663799999999999955e+02,5.115095710585283381e-03
5.673400000000000318e+02,5.072617024380192061e-03
5.682999999999999545e+02,5.098816164487447906e-03
5.692699999999999818e+02,5.147123709473307336e-03
5.702300000000000182e+02,5.178449436219098069e-03
5.712000000000000455e+02,5.196383711052123162e-03
5.721599999999999682e+02,5.212101439436111865e-03
5.731299999999999955e+02,5.235890908255227093e-03
5.740900000000000318e+02,5.237093549298852888e-03
5.750499999999999545e+02,5.170553263819537872e-03
5.760199999999999818e+02,5.035910137344356587e-03
5.769800000000000182e+02,4.868251441781061041e-03
5.779500000000000455e+02,4.720023738553966522e-03
5.789099999999999682e+02,4.662371584875120781e-03
5.798799999999999955e+02,4.643313674614482807e-03
5.808400000000000318e+02,4.603332443715335218e-03
5.817999999999999545e+02,4.486360240019823462e-03
5.827699999999999818e+02,4.301719726216462689e-03
5.837300000000000182e+02,4.097082013162185038e-03
5.847000000000000455e+02,3.912775078626393004e-03
