Created As Omnic File,PLAS 52
Raman Shift / cm-1,INT
3418.58,-5
3417.61,5
3416.65,7
3415.68,5
3414.72,5
3413.76,7
3412.79,8
3411.83,6
3410.86,-0
3409.90,-2
3408.94,2
3407.97,5
3407.01,2
3406.04,0
3405.08,1
3404.11,3
3403.15,5
3402.19,11
3401.22,13
3400.26,6
3399.29,1
3398.33,1
3397.36,0
3396.40,-1
3395.44,1
3394.47,6
3393.51,8
3392.54,7
3391.58,11
3390.61,18
3389.65,18
3388.69,12
3387.72,10
3386.76,10
3385.79,6
3384.83,5
3383.87,8
3382.90,9
3381.94,7
3380.97,4
3380.01,-1
3379.04,-5
3378.08,-4
3377.12,0
3376.15,5
3375.19,8
3374.22,9
3373.26,8
3372.29,5
3371.33,1
3370.37,-1
3369.40,0
3368.44,1
3367.47,-1
3366.51,-2
3365.54,-2
3364.58,-1
3363.62,-1
3362.65,-1
3361.69,-0
3360.72,1
3359.76,3
3358.80,1
3357.83,-2
3356.87,0
3355.90,-0
3354.94,-6
3353.97,-9
3353.01,-8
3352.05,-7
3351.08,-5
3350.12,-4
3349.15,-6
3348.19,-4
3347.22,1
3346.26,5
3345.30,8
3344.33,8
3343.37,4
3342.40,2
3341.44,0
3340.47,-2
3339.51,-1
3338.55,3
3337.58,4
3336.62,3
3335.65,3
3334.69,4
3333.73,5
3332.76,6
3331.80,8
3330.83,9
3329.87,5
3328.90,-1
3327.94,-6
3326.98,-5
3326.01,-5
3325.05,-4
3324.08,-6
3323.12,-7
3322.15,-4
3321.19,-2
3320.23,-1
3319.26,-4
3318.30,-5
3317.33,-4
3316.37,-4
3315.40,-8
3314.44,-12
3313.48,-15
3312.51,-16
3311.55,-9
3310.58,-4
3309.62,-1
3308.66,3
3307.69,6
3306.73,5
3305.76,3
3304.80,-0
3303.83,-3
3302.87,-7
3301.91,-11
3300.94,-9
3299.98,-5
3299.01,-6
3298.05,-7
3297.08,-3
3296.12,-3
3295.16,-7
3294.19,-5
3293.23,5
3292.26,14
3291.30,18
3290.33,11
3289.37,-2
3288.41,-4
3287.44,-2
3286.48,-5
3285.51,-9
3284.55,-7
3283.59,-2
3282.62,3
3281.66,6
3280.69,5
3279.73,3
3278.76,4
3277.80,2
3276.84,-3
3275.87,-5
3274.91,-3
3273.94,1
3272.98,2
3272.01,-1
3271.05,-5
3270.09,-4
3269.12,0
3268.16,-1
3267.19,-6
3266.23,-7
3265.26,-6
3264.30,-4
3263.34,-3
3262.37,-1
3261.41,1
3260.44,6
3259.48,7
3258.51,-0
3257.55,-6
3256.59,-9
3255.62,-9
3254.66,-5
3253.69,-2
3252.73,-1
3251.77,-1
3250.80,-1
3249.84,-1
3248.87,0
3247.91,-2
3246.94,-3
3245.98,0
3245.02,3
3244.05,4
3243.09,3
3242.12,-0
3241.16,-5
3240.19,-7
3239.23,-3
3238.27,6
3237.30,12
3236.34,11
3235.37,9
3234.41,10
3233.44,10
3232.48,12
3231.52,15
3230.55,18
3229.59,19
3228.62,19
3227.66,18
3226.70,16
3225.73,12
3224.77,12
3223.80,20
3222.84,23
3221.87,17
3220.91,15
3219.95,20
3218.98,21
3218.02,16
3217.05,13
3216.09,15
3215.12,17
3214.16,16
3213.20,14
3212.23,11
3211.27,7
3210.30,1
3209.34,-3
3208.37,-5
3207.41,-2
3206.45,2
3205.48,3
3204.52,2
3203.55,-0
3202.59,-1
3201.63,-1
3200.66,-0
3199.70,1
3198.73,-3
3197.77,-12
3196.80,-14
3195.84,-8
3194.88,-3
3193.91,0
3192.95,1
3191.98,-0
3191.02,-3
3190.05,-6
3189.09,-2
3188.13,2
3187.16,-1
3186.20,-4
3185.23,-1
3184.27,1
3183.30,-0
3182.34,-2
3181.38,-3
3180.41,-2
3179.45,-3
3178.48,-4
3177.52,-5
3176.56,-5
3175.59,-5
3174.63,-7
3173.66,-9
3172.70,-12
3171.73,-12
3170.77,-1
3169.81,11
3168.84,8
3167.88,-3
3166.91,-7
3165.95,-7
3164.98,-9
3164.02,-9
3163.06,-4
3162.09,2
3161.13,2
3160.16,-1
3159.20,-3
3158.23,-8
3157.27,-11
3156.31,-5
3155.34,8
3154.38,16
3153.41,14
3152.45,3
3151.49,-7
3150.52,-7
3149.56,-1
3148.59,-2
3147.63,-8
3146.66,-8
3145.70,-2
3144.74,-1
3143.77,-4
3142.81,-3
3141.84,-1
3140.88,1
3139.91,-0
3138.95,-5
3137.99,-8
3137.02,-7
3136.06,-5
3135.09,-4
3134.13,-4
3133.16,-7
3132.20,-7
3131.24,-7
3130.27,-11
3129.31,-15
3128.34,-15
3127.38,-11
3126.42,-11
3125.45,-13
3124.49,-10
3123.52,-5
3122.56,-1
3121.59,0
3120.63,-6
3119.67,-9
3118.70,-8
3117.74,-6
3116.77,-6
3115.81,-6
3114.84,-3
3113.88,0
3112.92,-0
3111.95,0
3110.99,3
3110.02,5
3109.06,9
3108.09,15
3107.13,21
3106.17,22
3105.20,18
3104.24,18
3103.27,24
3102.31,32
3101.34,39
3100.38,44
3099.42,51
3098.45,59
3097.49,68
3096.52,74
3095.56,80
3094.60,93
3093.63,111
3092.67,130
3091.70,152
3090.74,177
3089.77,206
3088.81,241
3087.85,277
3086.88,314
3085.92,350
3084.95,387
3083.99,424
3083.02,454
3082.06,478
3081.10,497
3080.13,508
3079.17,507
3078.20,494
3077.24,466
3076.27,436
3075.31,405
3074.35,378
3073.38,351
3072.42,327
3071.45,312
3070.49,305
3069.53,302
3068.56,298
3067.60,291
3066.63,279
3065.67,264
3064.70,241
3063.74,211
3062.78,186
3061.81,164
3060.85,142
3059.88,122
3058.92,109
3057.95,100
3056.99,92
3056.03,82
3055.06,70
3054.10,63
3053.13,60
3052.17,57
3051.20,47
3050.24,35
3049.28,28
3048.31,26
3047.35,26
3046.38,30
3045.42,31
3044.46,27
3043.49,19
3042.53,16
3041.56,23
3040.60,31
3039.63,33
3038.67,33
3037.71,34
3036.74,36
3035.78,40
3034.81,38
3033.85,32
3032.88,34
3031.92,45
3030.96,55
3029.99,57
3029.03,50
3028.06,44
3027.10,51
3026.13,64
3025.17,76
3024.21,82
3023.24,82
3022.28,80
3021.31,84
3020.35,88
3019.39,94
3018.42,109
3017.46,126
3016.49,140
3015.53,148
3014.56,154
3013.60,166
3012.64,181
3011.67,191
3010.71,198
3009.74,207
3008.78,217
3007.81,230
3006.85,246
3005.89,265
3004.92,281
3003.96,292
3002.99,304
3002.03,321
3001.06,335
3000.10,342
2999.14,349
2998.17,359
2997.21,369
2996.24,381
2995.28,390
2994.32,397
2993.35,413
2992.39,429
2991.42,434
2990.46,436
2989.49,449
2988.53,470
2987.57,488
2986.60,497
2985.64,502
2984.67,508
2983.71,527
2982.74,553
2981.78,576
2980.82,597
2979.85,618
2978.89,642
2977.92,669
2976.96,698
2975.99,728
2975.03,760
2974.07,789
2973.10,819
2972.14,853
2971.17,886
2970.21,915
2969.25,946
2968.28,982
2967.32,1020
2966.35,1056
2965.39,1087
2964.42,1119
2963.46,1148
2962.50,1166
2961.53,1184
2960.57,1201
2959.60,1216
2958.64,1232
2957.67,1246
2956.71,1255
2955.75,1268
2954.78,1283
2953.82,1296
2952.85,1309
2951.89,1330
2950.92,1357
2949.96,1385
2949.00,1409
2948.03,1433
2947.07,1458
2946.10,1478
2945.14,1489
2944.17,1500
2943.21,1518
2942.25,1539
2941.28,1560
2940.32,1579
2939.35,1596
2938.39,1608
2937.43,1613
2936.46,1623
2935.50,1634
2934.53,1640
2933.57,1646
2932.60,1656
2931.64,1666
2930.68,1675
2929.71,1686
2928.75,1693
2927.78,1698
2926.82,1707
2925.85,1714
2924.89,1710
2923.93,1703
2922.96,1689
2922.00,1674
2921.03,1660
2920.07,1645
2919.10,1627
2918.14,1609
2917.18,1590
2916.21,1564
2915.25,1529
2914.28,1492
2913.32,1462
2912.36,1438
2911.39,1413
2910.43,1387
2909.46,1367
2908.50,1352
2907.53,1339
2906.57,1325
2905.61,1308
2904.64,1290
2903.68,1274
2902.71,1268
2901.75,1266
2900.78,1257
2899.82,1237
2898.86,1218
2897.89,1208
2896.93,1200
2895.96,1179
2895.00,1147
2894.03,1114
2893.07,1080
2892.11,1044
2891.14,1014
2890.18,995
2889.21,973
2888.25,939
2887.29,909
2886.32,893
2885.36,883
2884.39,867
2883.43,846
2882.46,835
2881.50,832
2880.54,824
2879.57,819
2878.61,811
2877.64,792
2876.68,767
2875.71,750
2874.75,743
2873.79,737
2872.82,725
2871.86,708
2870.89,690
2869.93,666
2868.96,632
2868.00,608
2867.04,603
2866.07,598
2865.11,578
2864.14,555
2863.18,532
2862.22,511
2861.25,492
2860.29,472
2859.32,450
2858.36,434
2857.39,423
2856.43,410
2855.47,394
2854.50,380
2853.54,362
2852.57,340
2851.61,313
2850.64,288
2849.68,272
2848.72,259
2847.75,244
2846.79,228
2845.82,217
2844.86,205
2843.89,190
2842.93,176
2841.97,167
2841.00,158
2840.04,147
2839.07,134
2838.11,115
2837.15,97
2836.18,88
2835.22,84
2834.25,82
2833.29,76
2832.32,63
2831.36,58
2830.40,65
2829.43,67
2828.47,59
2827.50,55
2826.54,58
2825.57,56
2824.61,43
2823.65,34
2822.68,37
2821.72,45
2820.75,47
2819.79,47
2818.82,45
2817.86,38
2816.90,28
2815.93,21
2814.97,21
2814.00,23
2813.04,21
2812.08,17
2811.11,19
2810.15,22
2809.18,18
2808.22,16
2807.25,17
2806.29,13
2805.33,8
2804.36,7
2803.40,8
2802.43,8
2801.47,5
2800.50,4
2799.54,6
2798.58,6
2797.61,0
2796.65,-6
2795.68,-4
2794.72,-1
2793.75,0
2792.79,3
2791.83,8
2790.86,10
2789.90,9
2788.93,9
2787.97,12
2787.00,18
2786.04,25
2785.08,29
2784.11,25
2783.15,20
2782.18,20
2781.22,15
2780.26,2
2779.29,-6
2778.33,-5
2777.36,1
2776.40,12
2775.43,17
2774.47,8
2773.51,3
2772.54,6
2771.58,5
2770.61,-2
2769.65,-13
2768.68,-20
2767.72,-19
2766.76,-11
2765.79,-6
2764.83,-9
2763.86,-11
2762.90,-7
2761.93,-4
2760.97,-10
2760.01,-15
2759.04,-8
2758.08,-0
2757.11,1
2756.15,-4
2755.19,-14
2754.22,-19
2753.26,-14
2752.29,-6
2751.33,-7
2750.36,-10
2749.40,-6
2748.44,-1
2747.47,-3
2746.51,-8
2745.54,-12
2744.58,-13
2743.61,-15
2742.65,-15
2741.69,-6
2740.72,0
2739.76,-3
2738.79,-12
2737.83,-21
2736.86,-28
2735.90,-30
2734.94,-27
2733.97,-16
2733.01,-3
2732.04,-7
2731.08,-19
2730.12,-21
2729.15,-16
2728.19,-13
2727.22,-11
2726.26,-5
2725.29,1
2724.33,2
2723.37,-1
2722.40,-3
2721.44,-7
2720.47,-8
2719.51,-4
2718.54,3
2717.58,13
2716.62,22
2715.65,25
2714.69,20
2713.72,10
2712.76,5
2711.79,8
2710.83,10
2709.87,11
2708.90,15
2707.94,17
2706.97,16
2706.01,12
2705.05,5
2704.08,0
2703.12,3
2702.15,9
2701.19,14
2700.22,17
2699.26,12
2698.30,-0
2697.33,-8
2696.37,-7
2695.40,-4
2694.44,1
2693.47,2
2692.51,1
2691.55,3
2690.58,10
2689.62,15
2688.65,12
2687.69,5
2686.72,2
2685.76,5
2684.80,8
2683.83,8
2682.87,2
2681.90,-5
2680.94,-7
2679.98,-5
2679.01,-3
2678.05,-0
2677.08,4
2676.12,7
2675.15,3
2674.19,-5
2673.23,-8
2672.26,-8
2671.30,-5
2670.33,0
2669.37,-2
2668.40,-8
2667.44,-11
2666.48,-11
2665.51,-8
2664.55,-6
2663.58,-8
2662.62,-14
2661.65,-15
2660.69,-12
2659.73,-10
2658.76,-8
2657.80,-5
2656.83,-4
2655.87,1
2654.91,6
2653.94,3
2652.98,-4
2652.01,-8
2651.05,-8
2650.08,-9
2649.12,-12
2648.16,-15
2647.19,-12
2646.23,-9
2645.26,-6
2644.30,-5
2643.33,-5
2642.37,0
2641.41,12
2640.44,18
2639.48,13
2638.51,4
2637.55,-1
2636.58,-3
2635.62,-9
2634.66,-15
2633.69,-14
2632.73,-12
2631.76,-11
2630.80,-7
2629.83,1
2628.87,12
2627.91,22
2626.94,24
2625.98,19
2625.01,11
2624.05,4
2623.09,1
2622.12,2
2621.16,3
2620.19,2
2619.23,2
2618.26,3
2617.30,3
2616.34,2
2615.37,-1
2614.41,-2
2613.44,-1
2612.48,-1
2611.51,-2
2610.55,0
2609.59,7
2608.62,10
2607.66,6
2606.69,5
2605.73,8
2604.76,9
2603.80,5
2602.84,2
2601.87,1
2600.91,1
2599.94,4
2598.98,6
2598.02,4
2597.05,3
2596.09,5
2595.12,8
2594.16,5
2593.19,1
2592.23,-1
2591.27,-1
2590.30,2
2589.34,4
2588.37,-0
2587.41,-6
2586.44,-5
2585.48,-0
2584.52,-2
2583.55,-9
2582.59,-14
2581.62,-14
2580.66,-13
2579.69,-13
2578.73,-10
2577.77,-9
2576.80,-13
2575.84,-18
2574.87,-17
2573.91,-9
2572.95,-3
2571.98,-6
2571.02,-16
2570.05,-25
2569.09,-24
2568.12,-12
2567.16,-0
2566.20,3
2565.23,-1
2564.27,-4
2563.30,-7
2562.34,-10
2561.37,-9
2560.41,-4
2559.45,-3
2558.48,-3
2557.52,-3
2556.55,-4
2555.59,-2
2554.62,1
2553.66,1
2552.70,-2
2551.73,-5
2550.77,-7
2549.80,-9
2548.84,-11
2547.88,-12
2546.91,-6
2545.95,4
2544.98,4
2544.02,0
2543.05,4
2542.09,11
2541.13,14
2540.16,13
2539.20,7
2538.23,1
2537.27,-2
2536.30,-3
2535.34,-3
2534.38,3
2533.41,8
2532.45,3
2531.48,0
2530.52,6
2529.55,10
2528.59,7
2527.63,3
2526.66,2
2525.70,3
2524.73,6
2523.77,9
2522.81,3
2521.84,-4
2520.88,-7
2519.91,-7
2518.95,-4
2517.98,-4
2517.02,-9
2516.06,-13
2515.09,-13
2514.13,-8
2513.16,-0
2512.20,4
2511.23,-2
2510.27,-12
2509.31,-21
2508.34,-23
2507.38,-19
2506.41,-14
2505.45,-11
2504.48,-8
2503.52,-5
2502.56,-4
2501.59,-4
2500.63,-7
2499.66,-10
2498.70,-9
2497.74,-4
2496.77,-0
2495.81,0
2494.84,-2
2493.88,-8
2492.91,-18
2491.95,-26
2490.99,-21
2490.02,-7
2489.06,3
2488.09,4
2487.13,-4
2486.16,-15
2485.20,-20
2484.24,-13
2483.27,-3
2482.31,-0
2481.34,-1
2480.38,1
2479.41,-3
2478.45,-15
2477.49,-24
2476.52,-25
2475.56,-23
2474.59,-24
2473.63,-24
2472.66,-19
2471.70,-14
2470.74,-19
2469.77,-27
2468.81,-24
2467.84,-13
2466.88,-10
2465.92,-15
2464.95,-20
2463.99,-22
2463.02,-21
2462.06,-16
2461.09,-14
2460.13,-14
2459.17,-18
2458.20,-25
2457.24,-31
2456.27,-28
2455.31,-22
2454.34,-14
2453.38,-5
2452.42,0
2451.45,0
2450.49,-1
2449.52,-0
2448.56,1
2447.59,3
2446.63,3
2445.67,3
2444.70,3
2443.74,9
2442.77,21
2441.81,34
2440.85,40
2439.88,42
2438.92,41
2437.95,39
2436.99,38
2436.02,39
2435.06,38
2434.10,29
2433.13,22
2432.17,28
2431.20,37
2430.24,36
2429.27,30
2428.31,27
2427.35,22
2426.38,15
2425.42,8
2424.45,4
2423.49,4
2422.52,5
2421.56,7
2420.60,11
2419.63,17
2418.67,19
2417.70,20
2416.74,19
2415.78,13
2414.81,3
2413.85,-6
2412.88,-11
2411.92,-7
2410.95,4
2409.99,12
2409.03,9
2408.06,-2
2407.10,-15
2406.13,-23
2405.17,-21
2404.20,-11
2403.24,2
2402.28,7
2401.31,5
2400.35,1
2399.38,0
2398.42,3
2397.45,6
2396.49,8
2395.53,6
2394.56,2
2393.60,3
2392.63,5
2391.67,2
2390.71,-2
2389.74,-2
2388.78,-0
2387.81,8
2386.85,15
2385.88,18
2384.92,18
2383.96,16
2382.99,12
2382.03,9
2381.06,12
2380.10,20
2379.13,27
2378.17,31
2377.21,31
2376.24,30
2375.28,29
2374.31,21
2373.35,4
2372.38,-7
2371.42,-2
2370.46,10
2369.49,10
2368.53,3
2367.56,3
2366.60,10
2365.64,12
2364.67,7
2363.71,-0
2362.74,-8
2361.78,-6
2360.81,5
2359.85,11
2358.89,4
2357.92,-7
2356.96,-10
2355.99,-6
2355.03,-1
2354.06,5
2353.10,5
2352.14,-3
2351.17,-8
2350.21,-9
2349.24,-3
2348.28,8
2347.31,15
2346.35,16
2345.39,9
2344.42,1
2343.46,-5
2342.49,-5
2341.53,-3
2340.57,2
2339.60,5
2338.64,0
2337.67,-5
2336.71,-3
2335.74,-5
2334.78,-9
2333.82,-12
2332.85,-16
2331.89,-17
2330.92,-12
2329.96,-2
2328.99,11
2328.03,22
2327.07,25
2326.10,22
2325.14,18
2324.17,13
2323.21,8
2322.24,3
2321.28,-4
2320.32,-7
2319.35,-6
2318.39,-3
2317.42,1
2316.46,2
2315.49,2
2314.53,-0
2313.57,-2
2312.60,-1
2311.64,-1
2310.67,-1
2309.71,0
2308.75,2
2307.78,4
2306.82,3
2305.85,-2
2304.89,-6
2303.92,-7
2302.96,-4
2302.00,-2
2301.03,-4
2300.07,-5
2299.10,-0
2298.14,0
2297.17,-4
2296.21,-2
2295.25,2
2294.28,-1
2293.32,-4
2292.35,0
2291.39,6
2290.42,9
2289.46,8
2288.50,3
2287.53,-2
2286.57,-1
2285.60,4
2284.64,8
2283.68,6
2282.71,-0
2281.75,1
2280.78,7
2279.82,12
2278.85,12
2277.89,9
2276.93,5
2275.96,4
2275.00,7
2274.03,11
2273.07,19
2272.10,26
2271.14,23
2270.18,17
2269.21,15
2268.25,12
2267.28,9
2266.32,9
2265.35,9
2264.39,11
2263.43,10
2262.46,7
2261.50,6
2260.53,12
2259.57,23
2258.61,29
2257.64,21
2256.68,-5
2255.71,-25
2254.75,-20
2253.78,-2
2252.82,11
2251.86,13
2250.89,14
2249.93,14
2248.96,19
2248.00,25
2247.03,20
2246.07,5
2245.11,-1
2244.14,3
2243.18,7
2242.21,3
2241.25,-4
2240.28,-6
2239.32,-5
2238.36,-4
2237.39,-5
2236.43,-3
2235.46,-1
2234.50,-6
2233.54,-12
2232.57,-10
2231.61,-0
2230.64,7
2229.68,4
2228.71,-7
2227.75,-13
2226.79,-14
2225.82,-14
2224.86,-14
2223.89,-11
2222.93,-7
2221.96,-3
2221.00,-2
2220.04,-2
2219.07,-7
2218.11,-14
2217.14,-14
2216.18,-10
2215.21,-7
2214.25,-1
2213.29,4
2212.32,1
2211.36,-7
2210.39,-11
2209.43,-8
2208.47,-3
2207.50,0
2206.54,-0
2205.57,-3
2204.61,-7
2203.64,-1
2202.68,14
2201.72,24
2200.75,26
2199.79,24
2198.82,19
2197.86,12
2196.89,3
2195.93,-7
2194.97,-12
2194.00,-12
2193.04,-8
2192.07,-2
2191.11,6
2190.14,15
2189.18,21
2188.22,27
2187.25,28
2186.29,23
2185.32,17
2184.36,15
2183.40,13
2182.43,10
2181.47,7
2180.50,2
2179.54,-1
2178.57,-1
2177.61,1
2176.65,3
2175.68,4
2174.72,4
2173.75,6
2172.79,7
2171.82,5
2170.86,3
2169.90,3
2168.93,3
2167.97,4
2167.00,3
2166.04,0
2165.07,-2
2164.11,0
2163.15,9
2162.18,12
2161.22,1
2160.25,-10
2159.29,-7
2158.32,1
2157.36,6
2156.40,5
2155.43,5
2154.47,7
2153.50,5
2152.54,0
2151.58,-2
2150.61,-1
2149.65,-0
2148.68,0
2147.72,2
2146.75,4
2145.79,7
2144.83,10
2143.86,9
2142.90,0
2141.93,-14
2140.97,-26
2140.00,-30
2139.04,-28
2138.08,-24
2137.11,-17
2136.15,-8
2135.18,-5
2134.22,-10
2133.25,-13
2132.29,-10
2131.33,-6
2130.36,-3
2129.40,-3
2128.43,-6
2127.47,-9
2126.51,-8
2125.54,-7
2124.58,-6
2123.61,-7
2122.65,-10
2121.68,-11
2120.72,-11
2119.76,-12
2118.79,-12
2117.83,-13
2116.86,-17
2115.90,-22
2114.93,-24
2113.97,-24
2113.01,-23
2112.04,-19
2111.08,-19
2110.11,-19
2109.15,-13
2108.18,-6
2107.22,-8
2106.26,-12
2105.29,-15
2104.33,-17
2103.36,-16
2102.40,-15
2101.44,-13
2100.47,-8
2099.51,-5
2098.54,-5
2097.58,-8
2096.61,-18
2095.65,-30
2094.69,-34
2093.72,-31
2092.76,-25
2091.79,-14
2090.83,-4
2089.86,-0
2088.90,-2
2087.94,-7
2086.97,-8
2086.01,-1
2085.04,8
2084.08,6
2083.11,-3
2082.15,-4
2081.19,0
2080.22,-2
2079.26,-8
2078.29,-8
2077.33,-1
2076.37,1
2075.40,-6
2074.44,-12
2073.47,-9
2072.51,-3
2071.54,-5
2070.58,-13
2069.62,-18
2068.65,-15
2067.69,-11
2066.72,-8
2065.76,-4
2064.79,4
2063.83,10
2062.87,6
2061.90,-2
2060.94,-6
2059.97,-6
2059.01,-8
2058.04,-10
2057.08,-9
2056.12,-5
2055.15,-7
2054.19,-16
2053.22,-20
2052.26,-15
2051.30,-10
2050.33,-12
2049.37,-15
2048.40,-17
2047.44,-19
2046.47,-17
2045.51,-13
2044.55,-7
2043.58,1
2042.62,9
2041.65,12
2040.69,13
2039.72,11
2038.76,4
2037.80,-2
2036.83,-6
2035.87,-11
2034.90,-12
2033.94,-10
2032.97,-7
2032.01,-4
2031.05,0
2030.08,-0
2029.12,-6
2028.15,-14
2027.19,-22
2026.23,-24
2025.26,-20
2024.30,-14
2023.33,-7
2022.37,-1
2021.40,-0
2020.44,-8
2019.48,-14
2018.51,-15
2017.55,-13
2016.58,-18
2015.62,-28
2014.65,-31
2013.69,-25
2012.73,-16
2011.76,-6
2010.80,6
2009.83,15
2008.87,17
2007.90,12
2006.94,3
2005.98,-7
2005.01,-15
2004.05,-18
2003.08,-14
2002.12,-10
2001.15,-12
2000.19,-12
1999.23,-2
1998.26,3
1997.30,-7
1996.33,-22
1995.37,-27
1994.41,-27
1993.44,-27
1992.48,-26
1991.51,-24
1990.55,-21
1989.58,-17
1988.62,-11
1987.66,-5
1986.69,-4
1985.73,-7
1984.76,-9
1983.80,-6
1982.83,-3
1981.87,1
1980.91,4
1979.94,-1
1978.98,-12
1978.01,-21
1977.05,-20
1976.08,-11
1975.12,-3
1974.16,-7
1973.19,-19
1972.23,-27
1971.26,-23
1970.30,-10
1969.34,3
1968.37,12
1967.41,12
1966.44,8
1965.48,4
1964.51,1
1963.55,4
1962.59,9
1961.62,12
1960.66,10
1959.69,1
1958.73,-10
1957.76,-14
1956.80,-11
1955.84,-3
1954.87,5
1953.91,10
1952.94,9
1951.98,6
1951.01,5
1950.05,6
1949.09,7
1948.12,9
1947.16,8
1946.19,3
1945.23,-4
1944.27,-8
1943.30,-7
1942.34,-0
1941.37,9
1940.41,14
1939.44,13
1938.48,8
1937.52,5
1936.55,3
1935.59,1
1934.62,3
1933.66,6
1932.69,8
1931.73,8
1930.77,5
1929.80,-0
1928.84,-4
1927.87,-7
1926.91,-10
1925.94,-13
1924.98,-11
1924.02,-7
1923.05,-3
1922.09,1
1921.12,2
1920.16,1
1919.20,2
1918.23,6
1917.27,12
1916.30,16
1915.34,14
1914.37,4
1913.41,-7
1912.45,-15
1911.48,-18
1910.52,-14
1909.55,-7
1908.59,-2
1907.62,-3
1906.66,-8
1905.70,-13
1904.73,-15
1903.77,-14
1902.80,-12
1901.84,-6
1900.87,1
1899.91,2
1898.95,-6
1897.98,-12
1897.02,-7
1896.05,2
1895.09,8
1894.13,9
1893.16,8
1892.20,8
1891.23,7
1890.27,3
1889.30,-1
1888.34,-5
1887.38,-4
1886.41,3
1885.45,13
1884.48,17
1883.52,11
1882.55,-0
1881.59,-5
1880.63,-0
1879.66,8
1878.70,15
1877.73,12
1876.77,1
1875.80,-7
1874.84,-7
1873.88,3
1872.91,18
1871.95,29
1870.98,30
1870.02,22
1869.06,5
1868.09,-7
1867.13,0
1866.16,15
1865.20,21
1864.23,21
1863.27,16
1862.31,7
1861.34,1
1860.38,-1
1859.41,-1
1858.45,-1
1857.48,-0
1856.52,3
1855.56,6
1854.59,8
1853.63,9
1852.66,11
1851.70,11
1850.73,5
1849.77,-5
1848.81,-10
1847.84,-5
1846.88,7
1845.91,15
1844.95,16
1843.98,17
1843.02,20
1842.06,24
1841.09,24
1840.13,14
1839.16,-0
1838.20,-8
1837.24,-9
1836.27,-4
1835.31,3
1834.34,8
1833.38,6
1832.41,-1
1831.45,-10
1830.49,-16
1829.52,-17
1828.56,-16
1827.59,-18
1826.63,-17
1825.66,-5
1824.70,11
1823.74,13
1822.77,4
1821.81,2
1820.84,1
1819.88,-5
1818.91,-8
1817.95,-5
1816.99,1
1816.02,1
1815.06,-7
1814.09,-14
1813.13,-13
1812.17,-4
1811.20,6
1810.24,13
1809.27,16
1808.31,19
1807.34,24
1806.38,24
1805.42,18
1804.45,10
1803.49,2
1802.52,-2
1801.56,-2
1800.59,-0
1799.63,1
1798.67,4
1797.70,9
1796.74,14
1795.77,16
1794.81,10
1793.84,4
1792.88,0
1791.92,2
1790.95,10
1789.99,16
1789.02,13
1788.06,4
1787.10,-1
1786.13,2
1785.17,10
1784.20,23
1783.24,38
1782.27,43
1781.31,39
1780.35,38
1779.38,41
1778.42,38
1777.45,34
1776.49,38
1775.52,45
1774.56,46
1773.60,40
1772.63,33
1771.67,32
1770.70,39
1769.74,51
1768.77,61
1767.81,66
1766.85,66
1765.88,60
1764.92,51
1763.95,44
1762.99,53
1762.03,72
1761.06,81
1760.10,84
1759.13,84
1758.17,77
1757.20,68
1756.24,65
1755.28,73
1754.31,87
1753.35,103
1752.38,115
1751.42,118
1750.45,114
1749.49,110
1748.53,114
1747.56,130
1746.60,151
1745.63,169
1744.67,183
1743.70,192
1742.74,195
1741.78,207
1740.81,234
1739.85,264
1738.88,286
1737.92,305
1736.96,330
1735.99,363
1735.03,403
1734.06,450
1733.10,504
1732.13,565
1731.17,625
1730.21,685
1729.24,749
1728.28,818
1727.31,886
1726.35,949
1725.38,1006
1724.42,1054
1723.46,1093
1722.49,1136
1721.53,1196
1720.56,1268
1719.60,1338
1718.63,1397
1717.67,1433
1716.71,1446
1715.74,1435
1714.78,1394
1713.81,1323
1712.85,1219
1711.89,1083
1710.92,940
1709.96,807
1708.99,675
1708.03,551
1707.06,438
1706.10,358
1705.14,302
1704.17,252
1703.21,207
1702.24,171
1701.28,146
1700.31,132
1699.35,123
1698.39,117
1697.42,110
1696.46,98
1695.49,84
1694.53,70
1693.56,63
1692.60,61
1691.64,60
1690.67,61
1689.71,61
1688.74,61
1687.78,63
1686.81,65
1685.85,64
1684.89,58
1683.92,48
1682.96,38
1681.99,36
1681.03,43
1680.07,51
1679.10,56
1678.14,60
1677.17,67
1676.21,71
1675.24,73
1674.28,77
1673.32,79
1672.35,73
1671.39,63
1670.42,50
1669.46,38
1668.49,35
1667.53,43
1666.57,54
1665.60,61
1664.64,65
1663.67,65
1662.71,57
1661.74,46
1660.78,44
1659.82,46
1658.85,46
1657.89,48
1656.92,46
1655.96,43
1655.00,45
1654.03,49
1653.07,51
1652.10,54
1651.14,59
1650.17,66
1649.21,71
1648.25,74
1647.28,76
1646.32,81
1645.35,87
1644.39,87
1643.42,83
1642.46,77
1641.50,70
1640.53,69
1639.57,79
1638.60,91
1637.64,99
1636.67,101
1635.71,100
1634.75,99
1633.78,100
1632.82,104
1631.85,114
1630.89,128
1629.93,142
1628.96,150
1628.00,157
1627.03,175
1626.07,207
1625.10,250
1624.14,303
1623.18,378
1622.21,481
1621.25,615
1620.28,784
1619.32,995
1618.35,1250
1617.39,1556
1616.43,1881
1615.46,2151
1614.50,2389
1613.53,2493
1612.57,2498
1611.60,2403
1610.64,2216
1609.68,1989
1608.71,1736
1607.75,1485
1606.78,1265
1605.82,1076
1604.86,915
1603.89,781
1602.93,671
1601.96,580
1601.00,501
1600.03,418
1599.07,347
1598.11,293
1597.14,256
1596.18,229
1595.21,208
1594.25,188
1593.28,168
1592.32,146
1591.36,126
1590.39,112
1589.43,105
1588.46,100
1587.50,96
1586.53,93
1585.57,91
1584.61,93
1583.64,96
1582.68,91
1581.71,84
1580.75,79
1579.79,82
1578.82,94
1577.86,107
1576.89,113
1575.93,107
1574.96,90
1574.00,70
1573.04,59
1572.07,58
1571.11,59
1570.14,62
1569.18,65
1568.21,61
1567.25,57
1566.29,56
1565.32,56
1564.36,55
1563.39,56
1562.43,58
1561.46,58
1560.50,55
1559.54,56
1558.57,60
1557.61,62
1556.64,63
1555.68,63
1554.72,61
1553.75,58
1552.79,57
1551.82,57
1550.86,61
1549.89,67
1548.93,68
1547.97,65
1547.00,61
1546.04,57
1545.07,53
1544.11,53
1543.14,60
1542.18,72
1541.22,81
1540.25,86
1539.29,88
1538.32,89
1537.36,89
1536.39,92
1535.43,97
1534.47,101
1533.50,121
1532.54,157
1531.57,186
1530.61,201
1529.64,207
1528.68,212
1527.72,213
1526.75,197
1525.79,167
1524.82,139
1523.86,119
1522.90,97
1521.93,76
1520.97,60
1520.00,48
1519.04,44
1518.07,44
1517.11,43
1516.15,41
1515.18,37
1514.22,34
1513.25,36
1512.29,45
1511.32,55
1510.36,58
1509.40,54
1508.43,59
1507.47,76
1506.50,92
1505.54,104
1504.57,104
1503.61,92
1502.65,79
1501.68,70
1500.72,65
1499.75,59
1498.79,50
1497.83,41
1496.86,42
1495.90,55
1494.93,68
1493.97,69
1493.00,62
1492.04,56
1491.08,55
1490.11,60
1489.15,72
1488.18,85
1487.22,92
1486.25,97
1485.29,104
1484.33,116
1483.36,127
1482.40,136
1481.43,147
1480.47,159
1479.50,169
1478.54,178
1477.58,186
1476.61,194
1475.65,201
1474.68,209
1473.72,216
1472.76,220
1471.79,223
1470.83,228
1469.86,240
1468.90,257
1467.93,271
1466.97,281
1466.01,288
1465.04,296
1464.08,310
1463.11,334
1462.15,362
1461.18,380
1460.22,389
1459.26,404
1458.29,430
1457.33,460
1456.36,489
1455.40,506
1454.43,506
1453.47,494
1452.51,480
1451.54,473
1450.58,470
1449.61,462
1448.65,451
1447.69,439
1446.72,419
1445.76,399
1444.79,388
1443.83,383
1442.86,378
1441.90,375
1440.94,374
1439.97,363
1439.01,337
1438.04,308
1437.08,291
1436.11,283
1435.15,280
1434.19,281
1433.22,279
1432.26,269
1431.29,249
1430.33,225
1429.36,208
1428.40,200
1427.44,200
1426.47,209
1425.51,219
1424.54,220
1423.58,211
1422.62,200
1421.65,196
1420.69,197
1419.72,199
1418.76,197
1417.79,187
1416.83,176
1415.87,173
1414.90,176
1413.94,178
1412.97,185
1412.01,195
1411.04,203
1410.08,203
1409.12,195
1408.15,183
1407.19,171
1406.22,167
1405.26,169
1404.29,166
1403.33,161
1402.37,163
1401.40,169
1400.44,171
1399.47,177
1398.51,188
1397.55,201
1396.58,208
1395.62,214
1394.65,224
1393.69,229
1392.72,232
1391.76,240
1390.80,248
1389.83,247
1388.87,240
1387.90,233
1386.94,231
1385.97,229
1385.01,221
1384.05,209
1383.08,206
1382.12,219
1381.15,234
1380.19,233
1379.22,216
1378.26,198
1377.30,189
1376.33,185
1375.37,182
1374.40,177
1373.44,171
1372.47,167
1371.51,166
1370.55,168
1369.58,167
1368.62,157
1367.65,146
1366.69,141
1365.73,139
1364.76,136
1363.80,135
1362.83,136
1361.87,137
1360.90,143
1359.94,153
1358.98,159
1358.01,156
1357.05,146
1356.08,139
1355.12,136
1354.15,139
1353.19,143
1352.23,148
1351.26,147
1350.30,145
1349.33,148
1348.37,153
1347.40,159
1346.44,172
1345.48,192
1344.51,214
1343.55,230
1342.58,243
1341.62,247
1340.66,239
1339.69,230
1338.73,224
1337.76,217
1336.80,204
1335.83,187
1334.87,175
1333.91,171
1332.94,172
1331.98,173
1331.01,179
1330.05,185
1329.08,191
1328.12,196
1327.16,201
1326.19,204
1325.23,208
1324.26,212
1323.30,217
1322.33,220
1321.37,221
1320.41,217
1319.44,208
1318.48,205
1317.51,210
1316.55,220
1315.59,236
1314.62,261
1313.66,294
1312.69,327
1311.73,344
1310.76,348
1309.80,360
1308.84,387
1307.87,421
1306.91,450
1305.94,472
1304.98,493
1304.01,510
1303.05,518
1302.09,529
1301.12,541
1300.16,546
1299.19,552
1298.23,563
1297.26,575
1296.30,581
1295.34,580
1294.37,577
1293.41,574
1292.44,569
1291.48,564
1290.52,572
1289.55,590
1288.59,617
1287.62,652
1286.66,688
1285.69,716
1284.73,729
1283.77,729
1282.80,726
1281.84,731
1280.87,750
1279.91,776
1278.94,797
1277.98,808
1277.02,810
1276.05,802
1275.09,780
1274.12,743
1273.16,701
1272.19,660
1271.23,615
1270.27,564
1269.30,506
1268.34,449
1267.37,400
1266.41,359
1265.45,324
1264.48,299
1263.52,286
1262.55,272
1261.59,252
1260.62,229
1259.66,208
1258.70,192
1257.73,179
1256.77,172
1255.80,170
1254.84,162
1253.87,145
1252.91,126
1251.95,104
1250.98,85
1250.02,75
1249.05,75
1248.09,81
1247.12,80
1246.16,69
1245.20,65
1244.23,71
1243.27,77
1242.30,74
1241.34,65
1240.38,55
1239.41,49
1238.45,47
1237.48,49
1236.52,57
1235.55,56
1234.59,43
1233.63,32
1232.66,23
1231.70,18
1230.73,18
1229.77,20
1228.80,16
1227.84,0
1226.88,-8
1225.91,1
1224.95,15
1223.98,23
1223.02,24
1222.05,26
1221.09,33
1220.13,44
1219.16,50
1218.20,46
1217.23,37
1216.27,28
1215.30,22
1214.34,21
1213.38,21
1212.41,16
1211.45,8
1210.48,3
1209.52,10
1208.56,26
1207.59,37
1206.63,43
1205.66,50
1204.70,64
1203.73,78
1202.77,82
1201.81,77
1200.84,77
1199.88,72
1198.91,60
1197.95,48
1196.98,44
1196.02,47
1195.06,51
1194.09,47
1193.13,33
1192.16,18
1191.20,17
1190.23,26
1189.27,34
1188.31,39
1187.34,45
1186.38,55
1185.41,69
1184.45,85
1183.49,104
1182.52,113
1181.56,114
1180.59,117
1179.63,129
1178.66,145
1177.70,158
1176.74,160
1175.77,155
1174.81,148
1173.84,140
1172.88,131
1171.91,122
1170.95,108
1169.99,84
1169.02,57
1168.06,37
1167.09,21
1166.13,17
1165.16,22
1164.20,25
1163.24,23
1162.27,18
1161.31,16
1160.34,18
1159.38,22
1158.42,20
1157.45,18
1156.49,21
1155.52,27
1154.56,33
1153.59,34
1152.63,31
1151.67,29
1150.70,29
1149.74,27
1148.77,31
1147.81,44
1146.84,63
1145.88,82
1144.92,93
1143.95,94
1142.99,92
1142.02,92
1141.06,93
1140.09,93
1139.13,86
1138.17,77
1137.20,67
1136.24,62
1135.27,62
1134.31,68
1133.35,74
1132.38,77
1131.42,81
1130.45,90
1129.49,105
1128.52,121
1127.56,134
1126.60,139
1125.63,138
1124.67,140
1123.70,154
1122.74,169
1121.77,177
1120.81,176
1119.85,177
1118.88,191
1117.92,213
1116.95,231
1115.99,247
1115.02,264
1114.06,285
1113.10,306
1112.13,323
1111.17,334
1110.20,346
1109.24,364
1108.28,388
1107.31,412
1106.35,433
1105.38,443
1104.42,441
1103.45,426
1102.49,401
1101.53,377
1100.56,358
1099.60,344
1098.63,338
1097.67,332
1096.70,318
1095.74,294
1094.78,263
1093.81,235
1092.85,224
1091.88,229
1090.92,235
1089.95,240
1088.99,238
1088.03,233
1087.06,228
1086.10,233
1085.13,242
1084.17,231
1083.21,210
1082.24,190
1081.28,173
1080.31,158
1079.35,144
1078.38,131
1077.42,121
1076.46,113
1075.49,110
1074.53,108
1073.56,104
1072.60,97
1071.63,87
1070.67,78
1069.71,73
1068.74,75
1067.78,84
1066.81,97
1065.85,111
1064.88,121
1063.92,121
1062.96,109
1061.99,87
1061.03,69
1060.06,68
1059.10,77
1058.13,89
1057.17,102
1056.21,111
1055.24,108
1054.28,95
1053.31,94
1052.35,105
1051.39,113
1050.42,116
1049.46,115
1048.49,110
1047.53,103
1046.56,98
1045.60,99
1044.64,104
1043.67,107
1042.71,109
1041.74,113
1040.78,118
1039.81,123
1038.85,121
1037.89,112
1036.92,106
1035.96,102
1034.99,93
1034.03,77
1033.06,58
1032.10,47
1031.14,44
1030.17,44
1029.21,41
1028.24,41
1027.28,47
1026.32,52
1025.35,51
1024.39,43
1023.42,38
1022.46,38
1021.49,40
1020.53,41
1019.57,40
1018.60,34
1017.64,27
1016.67,21
1015.71,13
1014.74,4
1013.78,-1
1012.82,-5
1011.85,-11
1010.89,-21
1009.92,-30
1008.96,-32
1007.99,-24
1007.03,-12
1006.07,-6
1005.10,-5
1004.14,-6
1003.17,-7
1002.21,-6
1001.25,0
1000.28,5
999.32,-0
998.35,-11
997.39,-19
996.42,-19
995.46,-11
994.50,-2
993.53,3
992.57,-0
991.60,-4
990.64,-5
989.67,-5
988.71,-6
987.75,-7
986.78,-5
985.82,-2
984.85,-7
983.89,-14
982.92,-19
981.96,-21
981.00,-21
980.03,-18
979.07,-12
978.10,-12
977.14,-21
976.18,-29
975.21,-29
974.25,-24
973.28,-16
972.32,-10
971.35,0
970.39,15
969.43,31
968.46,44
967.50,46
966.53,40
965.57,34
964.60,37
963.64,47
962.68,64
961.71,85
960.75,104
959.78,116
958.82,117
957.85,112
956.89,109
955.93,115
954.96,123
954.00,133
953.03,147
952.07,160
951.11,171
950.14,181
949.18,193
948.21,202
947.25,208
946.28,213
945.32,216
944.36,216
943.39,215
942.43,212
941.46,215
940.50,225
939.53,237
938.57,249
937.61,259
936.64,267
935.68,271
934.71,270
933.75,273
932.78,283
931.82,298
930.86,310
929.89,316
928.93,315
927.96,311
927.00,306
926.04,300
925.07,291
924.11,283
923.14,277
922.18,276
921.21,277
920.25,286
919.29,295
918.32,296
917.36,288
916.39,278
915.43,265
914.46,253
913.50,249
912.54,241
911.57,236
910.61,238
909.64,244
908.68,248
907.71,250
906.75,248
905.79,239
904.82,225
903.86,217
902.89,219
901.93,229
900.96,239
900.00,238
899.04,233
898.07,224
897.11,212
896.14,202
895.18,202
894.22,220
893.25,254
892.29,280
891.32,294
890.36,306
889.39,329
888.43,360
887.47,393
886.50,424
885.54,457
884.57,481
883.61,500
882.64,514
881.68,521
880.72,516
879.75,498
878.79,478
877.82,470
876.86,474
875.89,484
874.93,491
873.97,490
873.00,490
872.04,507
871.07,532
870.11,551
869.15,557
868.18,557
867.22,557
866.25,557
865.29,551
864.32,552
863.36,570
862.40,597
861.43,623
860.47,639
859.50,648
858.54,652
857.57,657
856.61,663
855.65,666
854.68,663
853.72,651
852.75,619
851.79,574
850.82,536
849.86,504
848.90,475
847.93,443
846.97,410
846.00,384
845.04,358
844.08,330
843.11,306
842.15,293
841.18,294
840.22,306
839.25,309
838.29,296
837.33,273
836.36,237
835.40,195
834.43,169
833.47,192
832.50,232
831.54,232
830.58,222
829.61,215
828.65,209
827.68,196
826.72,181
825.75,167
824.79,156
823.83,149
822.86,148
821.90,150
820.93,152
819.97,145
819.01,125
818.04,105
817.08,91
816.11,85
815.15,83
814.18,86
813.22,91
812.26,104
811.29,118
810.33,125
809.36,124
808.40,122
807.43,120
806.47,117
805.51,117
804.54,120
803.58,123
802.61,126
801.65,132
800.68,144
799.72,164
798.76,182
797.79,189
796.83,184
795.86,164
794.90,125
793.94,81
792.97,59
792.01,37
791.04,19
790.08,8
789.11,-1
788.15,-10
787.19,-13
786.22,-12
785.26,-11
784.29,-10
783.33,-5
782.36,6
781.40,19
780.44,17
779.47,0
778.51,-12
777.54,-14
776.58,-9
775.61,-7
774.65,-8
773.69,-13
772.72,-23
771.76,-31
770.79,-31
769.83,-20
768.87,-7
767.90,-0
766.94,2
765.97,6
765.01,13
764.04,22
763.08,32
762.12,34
761.15,23
760.19,11
759.22,6
758.26,4
757.29,1
756.33,0
755.37,-1
754.40,-1
753.44,3
752.47,9
751.51,14
750.54,18
749.58,21
748.62,27
747.65,36
746.69,39
745.72,36
744.76,30
743.79,33
742.83,33
741.87,15
740.90,-6
739.94,-11
738.97,2
738.01,20
737.05,26
736.08,25
735.12,23
734.15,24
733.19,27
732.22,30
731.26,28
730.30,25
729.33,28
728.37,37
727.40,41
726.44,32
725.47,13
724.51,1
723.55,-7
722.58,-17
721.62,-26
720.65,-32
719.69,-32
718.72,-32
717.76,-29
716.80,-21
715.83,-10
714.87,0
713.90,6
712.94,8
711.98,10
711.01,20
710.05,44
709.08,79
708.12,115
707.15,143
706.19,160
705.23,165
704.26,164
703.30,153
702.33,132
701.37,107
700.40,88
699.44,71
698.48,51
697.51,30
696.55,13
695.58,2
694.62,-2
693.65,-1
692.69,4
691.73,8
690.76,7
689.80,-2
688.83,-17
687.87,-10
686.91,83
685.94,120
684.98,46
684.01,-45
683.05,5
682.08,142
681.12,118
680.16,41
679.19,-4
678.23,0
677.26,22
676.30,24
675.33,18
674.37,10
673.41,2
672.44,-3
671.48,-4
670.51,-5
669.55,-14
668.58,-21
667.62,-26
666.66,-28
665.69,-26
664.73,-19
663.76,-11
662.80,-7
661.84,-6
660.87,-7
659.91,-5
658.94,-2
657.98,4
657.01,7
656.05,6
655.09,4
654.12,3
653.16,3
652.19,3
651.23,-0
650.26,-10
649.30,-18
648.34,-19
647.37,-14
646.41,-11
645.44,-7
644.48,2
643.51,13
642.55,21
641.59,21
640.62,13
639.66,9
638.69,26
637.73,68
636.77,139
635.80,236
634.84,346
633.87,412
632.91,456
631.94,466
630.98,439
630.02,383
629.05,301
628.09,190
627.12,113
626.16,68
625.19,42
624.23,21
623.27,2
622.30,-13
621.34,-24
620.37,-32
619.41,-36
618.44,-40
617.48,-41
616.52,-31
615.55,-17
614.59,-7
613.62,-3
612.66,-5
611.70,-10
610.73,-15
609.77,-17
608.80,-17
607.84,-14
606.87,-7
605.91,3
604.95,11
603.98,13
603.02,10
602.05,6
601.09,0
600.12,-4
599.16,-3
598.20,1
597.23,1
596.27,-2
595.30,-7
594.34,-11
593.37,-11
592.41,-6
591.45,0
590.48,6
589.52,9
588.55,10
587.59,4
586.62,-4
585.66,-10
584.70,-9
583.73,-1
582.77,13
581.80,28
580.84,39
579.88,41
578.91,36
577.95,30
576.98,30
576.02,38
575.05,48
574.09,54
573.13,55
572.16,50
571.20,43
570.23,33
569.27,21
568.30,12
567.34,10
566.38,16
565.41,26
564.45,32
563.48,35
562.52,37
561.55,37
560.59,31
559.63,16
558.66,4
557.70,-0
556.73,5
555.77,17
554.81,32
553.84,40
552.88,45
551.91,48
550.95,51
549.98,51
549.02,45
548.06,40
547.09,40
546.13,40
545.16,34
544.20,23
543.23,15
542.27,19
541.31,27
540.34,29
539.38,24
538.41,12
537.45,-1
536.48,-9
535.52,-12
534.56,-11
533.59,-6
532.63,1
531.66,5
530.70,6
529.74,8
528.77,9
527.81,9
526.84,5
525.88,-1
524.91,-3
523.95,-2
522.99,0
522.02,0
521.06,4
520.09,9
519.13,12
518.16,11
517.20,5
516.24,-6
515.27,-17
514.31,-21
513.34,-15
512.38,-2
511.41,12
510.45,17
509.49,7
508.52,-2
507.56,-2
506.59,7
505.63,20
504.67,29
503.70,29
502.74,27
501.77,24
500.81,23
499.84,27
498.88,33
497.92,34
496.95,32
495.99,30
495.02,30
494.06,32
493.09,34
492.13,35
491.17,36
490.20,40
489.24,50
488.27,68
487.31,97
486.34,129
485.38,157
484.42,175
483.45,187
482.49,190
481.52,190
480.56,185
479.60,172
478.63,151
477.67,132
476.70,114
475.74,95
474.77,75
473.81,57
472.85,43
471.88,34
470.92,28
469.95,22
468.99,13
468.02,6
467.06,6
466.10,11
465.13,11
464.17,9
463.20,9
462.24,9
461.27,8
460.31,5
459.35,2
458.38,0
457.42,2
456.45,9
455.49,20
454.53,33
453.56,39
452.60,37
451.63,26
450.67,16
449.70,16
448.74,23
447.78,34
446.81,45
445.85,54
444.88,52
443.92,46
442.95,40
441.99,35
441.03,30
440.06,25
439.10,20
438.13,15
437.17,13
436.20,14
435.24,18
434.28,17
433.31,10
432.35,2
431.38,-4
430.42,-7
429.45,-4
428.49,2
427.53,4
426.56,-0
425.60,-9
424.63,-16
423.67,-14
422.71,-9
421.74,-5
420.78,-1
419.81,0
418.85,-2
417.88,-4
416.92,-3
415.96,1
414.99,5
414.03,3
413.06,-1
412.10,-6
411.13,-11
410.17,-13
409.21,-8
408.24,0
407.28,5
406.31,10
405.35,13
404.38,10
403.42,4
402.46,3
401.49,5
400.53,6
399.56,7
398.60,6
397.64,1
396.67,-6
395.71,-11
394.74,-7
393.78,4
392.81,18
391.85,28
390.89,31
389.92,25
388.96,10
387.99,-3
387.03,3
386.06,18
385.10,33
384.14,41
383.17,39
382.21,34
381.24,30
380.28,25
379.31,18
378.35,8
377.39,-1
376.42,-2
375.46,2
374.49,9
373.53,12
372.57,11
371.60,5
370.64,-1
369.67,-4
368.71,-4
367.74,-2
366.78,0
365.82,4
364.85,8
363.89,12
362.92,14
361.96,16
360.99,18
360.03,19
359.07,18
358.10,19
357.14,27
356.17,36
355.21,45
354.24,54
353.28,58
352.32,50
351.35,31
350.39,12
349.42,1
348.46,-2
347.50,4
346.53,12
345.57,13
344.60,14
343.64,17
342.67,23
341.71,25
340.75,17
339.78,6
338.82,-3
337.85,-6
336.89,-5
335.92,-5
334.96,-6
334.00,-8
333.03,-11
332.07,-15
331.10,-14
330.14,-9
329.17,-5
328.21,-2
327.25,-2
326.28,2
325.32,8
324.35,10
323.39,6
322.43,-3
321.46,-8
320.50,-3
319.53,2
318.57,-0
317.60,-15
316.64,-31
315.68,-31
314.71,-23
313.75,-13
312.78,-5
311.82,1
310.85,3
309.89,0
308.93,-7
307.96,-16
307.00,-27
306.03,-40
305.07,-48
304.10,-46
303.14,-33
302.18,-14
301.21,-1
300.25,6
299.28,8
298.32,5
297.36,-3
296.39,-5
295.43,5
294.46,21
293.50,34
292.53,37
291.57,32
290.61,31
289.64,34
288.68,39
287.71,44
286.75,46
285.78,50
284.82,55
283.86,61
282.89,66
281.93,67
280.96,70
280.00,76
279.03,85
278.07,92
277.11,91
276.14,88
275.18,90
274.21,98
273.25,109
272.28,111
271.32,107
270.36,104
269.39,103
268.43,103
267.46,101
266.50,93
265.54,84
264.57,72
263.61,60
262.64,47
261.68,38
260.71,33
259.75,34
258.79,39
257.82,43
256.86,38
255.89,29
254.93,20
253.96,15
253.00,12
252.04,12
251.07,10
250.11,6
249.14,2
248.18,0
247.21,-0
246.25,0
245.29,-0
244.32,-3
243.36,-9
242.39,-14
241.43,-16
240.47,-14
239.50,-11
238.54,-8
237.57,-6
236.61,-7
235.64,-6
234.68,-4
233.72,1
232.75,6
231.79,19
230.82,40
229.86,66
228.89,91
227.93,120
226.97,143
226.00,157
225.04,156
224.07,145
223.11,121
222.14,92
221.18,66
220.22,48
219.25,32
218.29,22
217.32,18
216.36,20
215.40,25
214.43,28
213.47,24
212.50,21
211.54,24
210.57,35
209.61,52
208.65,65
207.68,69
206.72,63
205.75,50
204.79,38
203.82,35
202.86,38
201.90,42
200.93,44
199.97,42
199.00,40
198.04,40
197.07,45
196.11,52
195.15,53
194.18,47
193.22,42
192.25,39
191.29,38
190.33,37
189.36,32
188.40,27
187.43,21
186.47,17
185.50,20
184.54,26
183.58,30
182.61,29
181.65,18
180.68,4
179.72,-3
178.75,-1
177.79,6
176.83,14
175.86,21
174.90,26
173.93,27
172.97,27
172.00,27
171.04,27
170.08,21
169.11,13
168.15,3
167.18,-5
166.22,-7
165.26,-3
164.29,5
163.33,14
162.36,21
161.40,23
160.43,23
159.47,24
158.51,30
157.54,36
156.58,38
155.61,36
154.65,32
153.68,28
152.72,26
151.76,22
150.79,17
149.83,11
148.86,-4
147.90,-5
146.93,-5
145.97,-4
145.01,-3
144.04,-3
143.08,-7
142.11,-9
141.15,-7
140.19,-0
139.22,11
138.26,21
137.29,30
136.33,37
135.36,40
134.40,33
133.44,22
132.47,17
131.51,19
130.54,31
129.58,54
128.61,80
127.65,103
126.69,119
125.72,129
124.76,141
123.79,156
122.83,175
121.86,198
120.90,229
119.94,262
118.97,294
118.01,324
117.04,352
116.08,373
115.11,387
114.15,399
113.19,413
112.22,432
111.26,455
110.29,484
109.33,517
108.37,552
107.40,584
106.44,604
105.47,619
104.51,634
103.54,651
102.58,669
101.62,685
100.65,700
99.69,718
98.72,739
97.76,760
96.79,777
95.83,795
94.87,816
93.90,848
92.94,890
91.97,929
91.01,964
90.04,994
89.08,1022
88.12,1047
87.15,1072
86.19,1103
85.22,1141
84.26,1187
83.30,1232
82.33,1277
81.37,1322
80.40,1363
79.44,1400
78.47,1450
77.51,1509
76.55,1579
