Created As Omnic File,BIOL 012
Raman Shift / cm-1,INT
3699.66,1
3698.36,1
3697.06,0
3695.77,0
3694.47,0
3693.18,-0
3691.88,0
3690.58,0
3689.29,-0
3687.99,-0
3686.69,0
3685.40,0
3684.10,0
3682.80,0
3681.51,-0
3680.21,0
3678.91,0
3677.62,0
3676.32,0
3675.02,0
3673.73,-0
3672.43,0
3671.14,-0
3669.84,-0
3668.54,-0
3667.25,0
3665.95,0
3664.65,0
3663.36,1
3662.06,-0
3660.76,0
3659.47,0
3658.17,1
3656.87,0
3655.58,1
3654.28,-0
3652.98,1
3651.69,-0
3650.39,-0
3649.10,0
3647.80,0
3646.50,0
3645.21,0
3643.91,-1
3642.61,0
3641.32,-0
3640.02,-0
3638.72,-0
3637.43,-0
3636.13,-0
3634.83,-0
3633.54,-0
3632.24,0
3630.94,-0
3629.65,-0
3628.35,1
3627.06,-0
3625.76,1
3624.46,-0
3623.17,0
3621.87,1
3620.57,1
3619.28,-0
3617.98,0
3616.68,0
3615.39,-0
3614.09,0
3612.79,0
3611.50,0
3610.20,-0
3608.90,0
3607.61,1
3606.31,-0
3605.02,-0
3603.72,-0
3602.42,-0
3601.13,-0
3599.83,-0
3598.53,-0
3597.24,0
3595.94,0
3594.64,0
3593.35,0
3592.05,0
3590.75,-0
3589.46,0
3588.16,0
3586.87,0
3585.57,0
3584.27,-0
3582.98,1
3581.68,2
3580.38,5
3579.09,7
3577.79,5
3576.49,7
3575.20,4
3573.90,1
3572.60,-0
3571.31,0
3570.01,0
3568.71,0
3567.42,0
3566.12,-0
3564.83,0
3563.53,-1
3562.23,-0
3560.94,-0
3559.64,-0
3558.34,-0
3557.05,-0
3555.75,-1
3554.45,-0
3553.16,0
3551.86,-1
3550.56,-0
3549.27,-1
3547.97,-1
3546.67,-0
3545.38,-0
3544.08,-0
3542.79,0
3541.49,-0
3540.19,-0
3538.90,-0
3537.60,-0
3536.30,0
3535.01,0
3533.71,-1
3532.41,0
3531.12,-0
3529.82,0
3528.52,0
3527.23,0
3525.93,0
3524.63,-0
3523.34,-0
3522.04,-0
3520.75,0
3519.45,-1
3518.15,-0
3516.86,-0
3515.56,-0
3514.26,-0
3512.97,1
3511.67,-0
3510.37,0
3509.08,0
3507.78,1
3506.48,1
3505.19,0
3503.89,0
3502.59,-0
3501.30,0
3500.00,1
3498.71,0
3497.41,0
3496.11,-0
3494.82,0
3493.52,-0
3492.22,-0
3490.93,-1
3489.63,-0
3488.33,-1
3487.04,0
3485.74,-0
3484.44,-0
3483.15,0
3481.85,-1
3480.55,-1
3479.26,-0
3477.96,-0
3476.67,-1
3475.37,-0
3474.07,-1
3472.78,-1
3471.48,-0
3470.18,-1
3468.89,-1
3467.59,-0
3466.29,-1
3465.00,-1
3463.70,-1
3462.40,-0
3461.11,-1
3459.81,-1
3458.51,-0
3457.22,-0
3455.92,-1
3454.63,0
3453.33,-1
3452.03,-1
3450.74,0
3449.44,-1
3448.14,-0
3446.85,-1
3445.55,-1
3444.25,-1
3442.96,-0
3441.66,-0
3440.36,-1
3439.07,-0
3437.77,-0
3436.47,-1
3435.18,-1
3433.88,-0
3432.59,-0
3431.29,-1
3429.99,-0
3428.70,-1
3427.40,-1
3426.10,-1
3424.81,-1
3423.51,-1
3422.21,-1
3420.92,-0
3419.62,-0
3418.32,-1
3417.03,0
3415.73,-1
3414.43,-1
3413.14,-0
3411.84,-0
3410.55,-1
3409.25,-0
3407.95,-0
3406.66,-1
3405.36,-0
3404.06,-1
3402.77,-0
3401.47,-1
3400.17,-0
3398.88,-1
3397.58,-0
3396.28,-0
3394.99,-1
3393.69,-0
3392.39,-0
3391.10,-1
3389.80,-1
3388.51,-1
3387.21,-0
3385.91,-1
3384.62,-1
3383.32,0
3382.02,-1
3380.73,-1
3379.43,-0
3378.13,-1
3376.84,-0
3375.54,-0
3374.24,-0
3372.95,-0
3371.65,0
3370.35,-0
3369.06,-0
3367.76,-0
3366.47,-0
3365.17,0
3363.87,-0
3362.58,-0
3361.28,0
3359.98,0
3358.69,-0
3357.39,-0
3356.09,0
3354.80,-0
3353.50,-0
3352.20,-0
3350.91,-0
3349.61,-1
3348.31,-0
3347.02,0
3345.72,0
3344.43,0
3343.13,-0
3341.83,0
3340.54,-0
3339.24,-0
3337.94,0
3336.65,-0
3335.35,-0
3334.05,0
3332.76,-0
3331.46,0
3330.16,0
3328.87,-0
3327.57,1
3326.27,1
3324.98,0
3323.68,-0
3322.39,0
3321.09,0
3319.79,-0
3318.50,1
3317.20,1
3315.90,0
3314.61,0
3313.31,0
3312.01,-0
3310.72,1
3309.42,1
3308.12,0
3306.83,0
3305.53,1
3304.24,0
3302.94,0
3301.64,0
3300.35,1
3299.05,-0
3297.75,0
3296.46,1
3295.16,0
3293.86,1
3292.57,0
3291.27,1
3289.97,1
3288.68,1
3287.38,0
3286.08,-0
3284.79,1
3283.49,0
3282.20,1
3280.90,1
3279.60,1
3278.31,0
3277.01,1
3275.71,1
3274.42,1
3273.12,1
3271.82,1
3270.53,1
3269.23,0
3267.93,0
3266.64,0
3265.34,1
3264.04,0
3262.75,1
3261.45,0
3260.16,1
3258.86,1
3257.56,1
3256.27,1
3254.97,2
3253.67,1
3252.38,1
3251.08,1
3249.78,1
3248.49,1
3247.19,1
3245.89,1
3244.60,1
3243.30,0
3242.00,1
3240.71,1
3239.41,1
3238.12,1
3236.82,1
3235.52,1
3234.23,1
3232.93,1
3231.63,1
3230.34,1
3229.04,1
3227.74,1
3226.45,1
3225.15,1
3223.85,1
3222.56,1
3221.26,1
3219.96,1
3218.67,1
3217.37,1
3216.08,1
3214.78,2
3213.48,1
3212.19,1
3210.89,1
3209.59,1
3208.30,1
3207.00,1
3205.70,1
3204.41,1
3203.11,1
3201.81,1
3200.52,1
3199.22,1
3197.92,1
3196.63,1
3195.33,1
3194.04,1
3192.74,1
3191.44,1
3190.15,1
3188.85,0
3187.55,-0
3186.26,1
3184.96,1
3183.66,0
3182.37,0
3181.07,0
3179.77,1
3178.48,0
3177.18,0
3175.88,-0
3174.59,-0
3173.29,-0
3172.00,0
3170.70,-0
3169.40,0
3168.11,1
3166.81,-0
3165.51,0
3164.22,1
3162.92,0
3161.62,0
3160.33,0
3159.03,0
3157.73,0
3156.44,-0
3155.14,0
3153.84,0
3152.55,-0
3151.25,-0
3149.96,1
3148.66,-0
3147.36,0
3146.07,-0
3144.77,0
3143.47,-0
3142.18,0
3140.88,-0
3139.58,0
3138.29,-0
3136.99,0
3135.69,-0
3134.40,-0
3133.10,0
3131.80,0
3130.51,-0
3129.21,0
3127.92,0
3126.62,-1
3125.32,1
3124.03,-1
3122.73,0
3121.43,-0
3120.14,1
3118.84,-1
3117.54,0
3116.25,-0
3114.95,1
3113.65,0
3112.36,-0
3111.06,0
3109.76,-0
3108.47,0
3107.17,-1
3105.88,-0
3104.58,-0
3103.28,0
3101.99,1
3100.69,-0
3099.39,-0
3098.10,-0
3096.80,-1
3095.50,-1
3094.21,-0
3092.91,-1
3091.61,-0
3090.32,-1
3089.02,-0
3087.72,-0
3086.43,-1
3085.13,-0
3083.84,-1
3082.54,-0
3081.24,-0
3079.95,0
3078.65,-0
3077.35,-0
3076.06,-0
3074.76,0
3073.46,0
3072.17,-0
3070.87,-0
3069.57,-0
3068.28,0
3066.98,0
3065.68,-0
3064.39,1
3063.09,-0
3061.80,1
3060.50,0
3059.20,0
3057.91,0
3056.61,1
3055.31,1
3054.02,0
3052.72,0
3051.42,0
3050.13,0
3048.83,0
3047.53,-0
3046.24,-0
3044.94,0
3043.65,-0
3042.35,0
3041.05,-0
3039.76,-0
3038.46,0
3037.16,0
3035.87,0
3034.57,0
3033.27,1
3031.98,0
3030.68,0
3029.38,1
3028.09,-0
3026.79,0
3025.49,-0
3024.20,0
3022.90,0
3021.61,1
3020.31,-1
3019.01,0
3017.72,0
3016.42,1
3015.12,-0
3013.83,-0
3012.53,0
3011.23,1
3009.94,0
3008.64,1
3007.34,0
3006.05,1
3004.75,1
3003.45,0
3002.16,1
3000.86,1
2999.57,1
2998.27,1
2996.97,1
2995.68,2
2994.38,2
2993.08,2
2991.79,2
2990.49,3
2989.19,3
2987.90,3
2986.60,4
2985.30,3
2984.01,4
2982.71,5
2981.41,5
2980.12,4
2978.82,5
2977.53,5
2976.23,6
2974.93,7
2973.64,6
2972.34,7
2971.04,7
2969.75,7
2968.45,8
2967.15,9
2965.86,9
2964.56,9
2963.26,9
2961.97,10
2960.67,9
2959.37,9
2958.08,9
2956.78,11
2955.49,10
2954.19,10
2952.89,10
2951.60,10
2950.30,10
2949.00,10
2947.71,11
2946.41,11
2945.11,11
2943.82,11
2942.52,12
2941.22,12
2939.93,12
2938.63,13
2937.33,15
2936.04,16
2934.74,17
2933.45,16
2932.15,18
2930.85,19
2929.56,20
2928.26,20
2926.96,19
2925.67,20
2924.37,19
2923.07,21
2921.78,18
2920.48,17
2919.18,17
2917.89,16
2916.59,15
2915.29,15
2914.00,14
2912.70,14
2911.41,14
2910.11,12
2908.81,14
2907.52,12
2906.22,11
2904.92,12
2903.63,11
2902.33,12
2901.03,10
2899.74,11
2898.44,11
2897.14,11
2895.85,11
2894.55,11
2893.25,11
2891.96,11
2890.66,11
2889.37,12
2888.07,11
2886.77,13
2885.48,14
2884.18,15
2882.88,14
2881.59,15
2880.29,15
2878.99,16
2877.70,16
2876.40,17
2875.10,18
2873.81,16
2872.51,17
2871.21,18
2869.92,17
2868.62,17
2867.33,17
2866.03,16
2864.73,16
2863.44,14
2862.14,14
2860.84,13
2859.55,12
2858.25,11
2856.95,10
2855.66,10
2854.36,10
2853.06,9
2851.77,9
2850.47,8
2849.17,8
2847.88,7
2846.58,6
2845.29,7
2843.99,7
2842.69,5
2841.40,5
2840.10,5
2838.80,4
2837.51,4
2836.21,4
2834.91,4
2833.62,4
2832.32,2
2831.02,2
2829.73,2
2828.43,2
2827.13,1
2825.84,1
2824.54,0
2823.25,0
2821.95,0
2820.65,-0
2819.36,1
2818.06,-0
2816.76,0
2815.47,0
2814.17,0
2812.87,-1
2811.58,1
2810.28,-0
2808.98,-0
2807.69,-1
2806.39,-1
2805.09,1
2803.80,-0
2802.50,-1
2801.21,-1
2799.91,-1
2798.61,-2
2797.32,-1
2796.02,-1
2794.72,-1
2793.43,-2
2792.13,-1
2790.83,-2
2789.54,-3
2788.24,-2
2786.94,-2
2785.65,-2
2784.35,-2
2783.06,-2
2781.76,-2
2780.46,-1
2779.17,-2
2777.87,-2
2776.57,-2
2775.28,-2
2773.98,-3
2772.68,-2
2771.39,-2
2770.09,-2
2768.79,-1
2767.50,-1
2766.20,-1
2764.90,-2
2763.61,-2
2762.31,-2
2761.02,-2
2759.72,-1
2758.42,-1
2757.13,-2
2755.83,-2
2754.53,-1
2753.24,-2
2751.94,-2
2750.64,-2
2749.35,-2
2748.05,-2
2746.75,-1
2745.46,-2
2744.16,-2
2742.86,-2
2741.57,-2
2740.27,-2
2738.98,-2
2737.68,-1
2736.38,-1
2735.09,-2
2733.79,-1
2732.49,0
2731.20,-1
2729.90,-0
2728.60,-1
2727.31,-1
2726.01,-1
2724.71,-1
2723.42,0
2722.12,0
2720.82,-0
2719.53,-1
2718.23,-0
2716.94,-0
2715.64,0
2714.34,0
2713.05,-1
2711.75,-1
2710.45,-0
2709.16,-0
2707.86,-0
2706.56,-1
2705.27,-1
2703.97,0
2702.67,-0
2701.38,-1
2700.08,-1
2698.78,-1
2697.49,-1
2696.19,-0
2694.90,-2
2693.60,-1
2692.30,-2
2691.01,-1
2689.71,-2
2688.41,-2
2687.12,-1
2685.82,-0
2684.52,0
2683.23,-1
2681.93,-2
2680.63,-1
2679.34,-2
2678.04,-1
2676.74,-2
2675.45,-2
2674.15,-3
2672.86,-2
2671.56,-1
2670.26,-1
2668.97,-2
2667.67,-2
2666.37,-2
2665.08,-3
2663.78,-2
2662.48,-3
2661.19,-2
2659.89,-2
2658.59,-2
2657.30,-3
2656.00,-2
2654.70,-2
2653.41,-3
2652.11,-3
2650.82,-2
2649.52,-1
2648.22,-2
2646.93,-1
2645.63,-2
2644.33,-2
2643.04,-2
2641.74,-2
2640.44,-2
2639.15,-1
2637.85,-1
2636.55,-1
2635.26,-1
2633.96,-2
2632.66,-2
2631.37,-2
2630.07,-2
2628.78,-0
2627.48,-1
2626.18,-1
2624.89,-1
2623.59,-1
2622.29,-1
2621.00,-2
2619.70,-2
2618.40,-1
2617.11,-1
2615.81,-1
2614.51,-1
2613.22,-1
2611.92,-1
2610.62,-1
2609.33,-0
2608.03,-1
2606.74,-1
2605.44,-1
2604.14,-0
2602.85,-1
2601.55,0
2600.25,-1
2598.96,-1
2597.66,1
2596.36,0
2595.07,-1
2593.77,-1
2592.47,-0
2591.18,-1
2589.88,-1
2588.58,-1
2587.29,-0
2585.99,-1
2584.70,-1
2583.40,0
2582.10,-1
2580.81,-1
2579.51,-1
2578.21,1
2576.92,-1
2575.62,-1
2574.32,-2
2573.03,-1
2571.73,-1
2570.43,-0
2569.14,-1
2567.84,-1
2566.54,-1
2565.25,-0
2563.95,0
2562.66,-0
2561.36,-0
2560.06,-0
2558.77,-1
2557.47,-1
2556.17,1
2554.88,0
2553.58,-1
2552.28,-1
2550.99,0
2549.69,-1
2548.39,-1
2547.10,1
2545.80,2
2544.50,1
2543.21,2
2541.91,2
2540.62,2
2539.32,3
2538.02,1
2536.73,1
2535.43,1
2534.13,1
2532.84,-0
2531.54,0
2530.24,-0
2528.95,-0
2527.65,1
2526.35,0
2525.06,0
2523.76,-1
2522.46,-0
2521.17,-0
2519.87,-1
2518.58,-1
2517.28,-1
2515.98,-1
2514.69,-1
2513.39,-0
2512.09,-1
2510.80,0
2509.50,0
2508.20,0
2506.91,-1
2505.61,-1
2504.31,1
2503.02,-1
2501.72,-1
2500.43,-1
2499.13,0
2497.83,-0
2496.54,0
2495.24,-0
2493.94,0
2492.65,-1
2491.35,-2
2490.05,-1
2488.76,-0
2487.46,-1
2486.16,-1
2484.87,-1
2483.57,-1
2482.27,-0
2480.98,-0
2479.68,-1
2478.39,-1
2477.09,0
2475.79,-1
2474.50,0
2473.20,-0
2471.90,-1
2470.61,-1
2469.31,-1
2468.01,-1
2466.72,-1
2465.42,-1
2464.12,-1
2462.83,-2
2461.53,-1
2460.23,-1
2458.94,-1
2457.64,-0
2456.35,-1
2455.05,-1
2453.75,-1
2452.46,-1
2451.16,-1
2449.86,-1
2448.57,-0
2447.27,-0
2445.97,-1
2444.68,-0
2443.38,0
2442.08,-0
2440.79,-1
2439.49,-1
2438.19,-0
2436.90,-0
2435.60,-1
2434.31,-0
2433.01,-1
2431.71,-1
2430.42,-1
2429.12,-0
2427.82,-1
2426.53,-0
2425.23,0
2423.93,-1
2422.64,-1
2421.34,-1
2420.04,-1
2418.75,-0
2417.45,-0
2416.15,0
2414.86,0
2413.56,-0
2412.27,0
2410.97,-1
2409.67,0
2408.38,-0
2407.08,-0
2405.78,-0
2404.49,-0
2403.19,0
2401.89,-0
2400.60,0
2399.30,0
2398.00,-1
2396.71,-0
2395.41,1
2394.11,-0
2392.82,1
2391.52,0
2390.23,0
2388.93,1
2387.63,0
2386.34,0
2385.04,1
2383.74,1
2382.45,0
2381.15,0
2379.85,-0
2378.56,-0
2377.26,0
2375.96,-0
2374.67,1
2373.37,1
2372.07,0
2370.78,1
2369.48,2
2368.19,1
2366.89,1
2365.59,2
2364.30,2
2363.00,1
2361.70,1
2360.41,2
2359.11,1
2357.81,1
2356.52,1
2355.22,2
2353.92,3
2352.63,1
2351.33,2
2350.03,1
2348.74,0
2347.44,0
2346.15,-1
2344.85,1
2343.55,0
2342.26,0
2340.96,0
2339.66,1
2338.37,1
2337.07,1
2335.77,1
2334.48,2
2333.18,1
2331.88,0
2330.59,1
2329.29,0
2327.99,1
2326.70,-0
2325.40,0
2324.11,1
2322.81,1
2321.51,0
2320.22,1
2318.92,-0
2317.62,1
2316.33,3
2315.03,2
2313.73,0
2312.44,0
2311.14,0
2309.84,1
2308.55,2
2307.25,1
2305.95,1
2304.66,1
2303.36,1
2302.07,1
2300.77,-1
2299.47,-1
2298.18,-0
2296.88,0
2295.58,2
2294.29,2
2292.99,1
2291.69,2
2290.40,-0
2289.10,0
2287.80,0
2286.51,1
2285.21,-0
2283.91,-1
2282.62,-1
2281.32,-0
2280.03,1
2278.73,1
2277.43,1
2276.14,0
2274.84,1
2273.54,0
2272.25,1
2270.95,1
2269.65,-1
2268.36,-1
2267.06,2
2265.76,-1
2264.47,-1
2263.17,-1
2261.87,0
2260.58,-1
2259.28,-1
2257.99,-2
2256.69,-1
2255.39,-1
2254.10,-1
2252.80,0
2251.50,-1
2250.21,-2
2248.91,1
2247.61,0
2246.32,1
2245.02,1
2243.72,0
2242.43,-2
2241.13,-1
2239.84,1
2238.54,0
2237.24,-0
2235.95,1
2234.65,0
2233.35,-2
2232.06,-1
2230.76,1
2229.46,-1
2228.17,-1
2226.87,0
2225.57,-1
2224.28,0
2222.98,-1
2221.68,0
2220.39,2
2219.09,1
2217.80,0
2216.50,0
2215.20,1
2213.91,-0
2212.61,-1
2211.31,0
2210.02,0
2208.72,-0
2207.42,-1
2206.13,-1
2204.83,-2
2203.53,-0
2202.24,1
2200.94,-0
2199.64,-0
2198.35,1
2197.05,1
2195.76,1
2194.46,1
2193.16,-1
2191.87,-0
2190.57,0
2189.27,1
2187.98,-0
2186.68,-2
2185.38,-2
2184.09,-1
2182.79,-0
2181.49,1
2180.20,-1
2178.90,-1
2177.60,1
2176.31,-0
2175.01,-1
2173.72,-1
2172.42,0
2171.12,-1
2169.83,-1
2168.53,-0
2167.23,1
2165.94,-0
2164.64,-2
2163.34,-1
2162.05,-2
2160.75,1
2159.45,1
2158.16,-1
2156.86,2
2155.56,-0
2154.27,-1
2152.97,0
2151.68,-0
2150.38,-1
2149.08,-1
2147.79,1
2146.49,-1
2145.19,-1
2143.90,-1
2142.60,1
2141.30,0
2140.01,0
2138.71,1
2137.41,1
2136.12,2
2134.82,2
2133.52,0
2132.23,2
2130.93,1
2129.64,2
2128.34,2
2127.04,1
2125.75,2
2124.45,2
2123.15,3
2121.86,2
2120.56,1
2119.26,2
2117.97,1
2116.67,1
2115.37,1
2114.08,1
2112.78,2
2111.48,1
2110.19,2
2108.89,4
2107.60,3
2106.30,2
2105.00,2
2103.71,1
2102.41,1
2101.11,2
2099.82,3
2098.52,3
2097.22,3
2095.93,2
2094.63,1
2093.33,0
2092.04,1
2090.74,1
2089.44,1
2088.15,1
2086.85,2
2085.56,2
2084.26,1
2082.96,3
2081.67,2
2080.37,1
2079.07,2
2077.78,2
2076.48,2
2075.18,1
2073.89,3
2072.59,0
2071.29,3
2070.00,2
2068.70,1
2067.40,2
2066.11,-2
2064.81,0
2063.52,-0
2062.22,1
2060.92,1
2059.63,0
2058.33,2
2057.03,1
2055.74,1
2054.44,-1
2053.14,-0
2051.85,-0
2050.55,2
2049.25,0
2047.96,-0
2046.66,2
2045.36,-1
2044.07,2
2042.77,4
2041.48,2
2040.18,2
2038.88,2
2037.59,-0
2036.29,2
2034.99,2
2033.70,1
2032.40,3
2031.10,-1
2029.81,-0
2028.51,3
2027.21,2
2025.92,3
2024.62,3
2023.32,1
2022.03,1
2020.73,2
2019.44,0
2018.14,1
2016.84,3
2015.55,2
2014.25,2
2012.95,1
2011.66,1
2010.36,1
2009.06,1
2007.77,1
2006.47,2
2005.17,3
2003.88,1
2002.58,0
2001.28,2
1999.99,2
1998.69,2
1997.40,2
1996.10,0
1994.80,2
1993.51,2
1992.21,1
1990.91,2
1989.62,0
1988.32,1
1987.02,1
1985.73,2
1984.43,2
1983.13,2
1981.84,0
1980.54,-0
1979.24,3
1977.95,-2
1976.65,0
1975.36,3
1974.06,0
1972.76,4
1971.47,1
1970.17,1
1968.87,2
1967.58,2
1966.28,1
1964.98,3
1963.69,4
1962.39,3
1961.09,1
1959.80,2
1958.50,2
1957.21,2
1955.91,3
1954.61,4
1953.32,4
1952.02,5
1950.72,4
1949.43,2
1948.13,4
1946.83,4
1945.54,3
1944.24,3
1942.94,2
1941.65,5
1940.35,5
1939.05,5
1937.76,5
1936.46,3
1935.17,4
1933.87,2
1932.57,3
1931.28,1
1929.98,2
1928.68,1
1927.39,2
1926.09,2
1924.79,2
1923.50,3
1922.20,2
1920.90,1
1919.61,2
1918.31,3
1917.01,0
1915.72,-1
1914.42,-0
1913.13,-0
1911.83,-1
1910.53,-0
1909.24,1
1907.94,0
1906.64,2
1905.35,1
1904.05,2
1902.75,3
1901.46,-3
1900.16,1
1898.86,2
1897.57,2
1896.27,2
1894.97,3
1893.68,2
1892.38,2
1891.09,-0
1889.79,-0
1888.49,1
1887.20,-1
1885.90,0
1884.60,0
1883.31,1
1882.01,1
1880.71,0
1879.42,2
1878.12,2
1876.82,1
1875.53,3
1874.23,3
1872.93,1
1871.64,2
1870.34,1
1869.05,3
1867.75,3
1866.45,2
1865.16,2
1863.86,5
1862.56,4
1861.27,3
1859.97,2
1858.67,3
1857.38,4
1856.08,3
1854.78,2
1853.49,3
1852.19,3
1850.89,1
1849.60,0
1848.30,3
1847.01,5
1845.71,1
1844.41,1
1843.12,2
1841.82,1
1840.52,-0
1839.23,2
1837.93,2
1836.63,1
1835.34,2
1834.04,2
1832.74,3
1831.45,2
1830.15,2
1828.85,1
1827.56,-1
1826.26,1
1824.97,1
1823.67,1
1822.37,-3
1821.08,1
1819.78,3
1818.48,-0
1817.19,2
1815.89,1
1814.59,2
1813.30,1
1812.00,-0
1810.70,1
1809.41,2
1808.11,-0
1806.81,0
1805.52,1
1804.22,-1
1802.93,-0
1801.63,0
1800.33,1
1799.04,4
1797.74,3
1796.44,-3
1795.15,-0
1793.85,2
1792.55,-1
1791.26,1
1789.96,1
1788.66,2
1787.37,2
1786.07,1
1784.77,1
1783.48,-0
1782.18,-1
1780.89,2
1779.59,1
1778.29,2
1777.00,1
1775.70,1
1774.40,3
1773.11,2
1771.81,3
1770.51,5
1769.22,4
1767.92,3
1766.62,4
1765.33,3
1764.03,3
1762.73,3
1761.44,3
1760.14,5
1758.85,2
1757.55,2
1756.25,4
1754.96,7
1753.66,4
1752.36,3
1751.07,4
1749.77,3
1748.47,2
1747.18,2
1745.88,4
1744.58,2
1743.29,-0
1741.99,2
1740.69,3
1739.40,2
1738.10,5
1736.81,1
1735.51,1
1734.21,2
1732.92,-2
1731.62,0
1730.32,2
1729.03,3
1727.73,2
1726.43,-0
1725.14,1
1723.84,1
1722.54,2
1721.25,3
1719.95,-0
1718.65,-1
1717.36,1
1716.06,-0
1714.77,-1
1713.47,-2
1712.17,-0
1710.88,1
1709.58,-1
1708.28,2
1706.99,4
1705.69,3
1704.39,6
1703.10,4
1701.80,5
1700.50,7
1699.21,2
1697.91,4
1696.62,6
1695.32,7
1694.02,8
1692.73,8
1691.43,13
1690.13,10
1688.84,11
1687.54,12
1686.24,14
1684.95,15
1683.65,18
1682.35,18
1681.06,21
1679.76,21
1678.46,20
1677.17,23
1675.87,25
1674.58,22
1673.28,28
1671.98,30
1670.69,30
1669.39,32
1668.09,33
1666.80,33
1665.50,34
1664.20,37
1662.91,39
1661.61,36
1660.31,36
1659.02,40
1657.72,37
1656.42,38
1655.13,40
1653.83,39
1652.54,41
1651.24,42
1649.94,38
1648.65,38
1647.35,38
1646.05,35
1644.76,39
1643.46,33
1642.16,30
1640.87,31
1639.57,27
1638.27,27
1636.98,27
1635.68,26
1634.38,25
1633.09,24
1631.79,23
1630.50,23
1629.20,23
1627.90,23
1626.61,23
1625.31,21
1624.01,21
1622.72,22
1621.42,24
1620.12,26
1618.83,27
1617.53,29
1616.23,27
1614.94,27
1613.64,26
1612.34,25
1611.05,25
1609.75,22
1608.46,21
1607.16,19
1605.86,16
1604.57,17
1603.27,17
1601.97,19
1600.68,12
1599.38,13
1598.08,13
1596.79,13
1595.49,10
1594.19,9
1592.90,7
1591.60,7
1590.30,11
1589.01,7
1587.71,5
1586.42,6
1585.12,8
1583.82,9
1582.53,7
1581.23,5
1579.93,5
1578.64,5
1577.34,4
1576.04,5
1574.75,6
1573.45,4
1572.15,3
1570.86,1
1569.56,3
1568.26,3
1566.97,1
1565.67,0
1564.38,-2
1563.08,-0
1561.78,1
1560.49,3
1559.19,-1
1557.89,2
1556.60,2
1555.30,-1
1554.00,-2
1552.71,0
1551.41,1
1550.11,2
1548.82,5
1547.52,-2
1546.22,-2
1544.93,0
1543.63,1
1542.34,2
1541.04,2
1539.74,1
1538.45,1
1537.15,-0
1535.85,2
1534.56,0
1533.26,-1
1531.96,-1
1530.67,-1
1529.37,-2
1528.07,-3
1526.78,-4
1525.48,-5
1524.18,0
1522.89,-1
1521.59,-1
1520.30,1
1519.00,-0
1517.70,-1
1516.41,1
1515.11,-2
1513.81,-1
1512.52,-2
1511.22,-2
1509.92,0
1508.63,-0
1507.33,1
1506.03,3
1504.74,-1
1503.44,-3
1502.14,-1
1500.85,2
1499.55,-1
1498.26,-1
1496.96,0
1495.66,1
1494.37,-1
1493.07,-3
1491.77,1
1490.48,-1
1489.18,1
1487.88,-0
1486.59,2
1485.29,3
1483.99,2
1482.70,2
1481.40,5
1480.10,6
1478.81,10
1477.51,7
1476.22,8
1474.92,11
1473.62,13
1472.33,14
1471.03,18
1469.73,16
1468.44,17
1467.14,30
1465.84,28
1464.55,35
1463.25,44
1461.95,45
1460.66,44
1459.36,52
1458.06,55
1456.77,56
1455.47,60
1454.18,64
1452.88,70
1451.58,74
1450.29,74
1448.99,76
1447.69,80
1446.40,81
1445.10,84
1443.80,83
1442.51,83
1441.21,84
1439.91,82
1438.62,77
1437.32,80
1436.02,80
1434.73,73
1433.43,71
1432.14,70
1430.84,67
1429.54,65
1428.25,62
1426.95,61
1425.65,64
1424.36,65
1423.06,64
1421.76,63
1420.47,65
1419.17,68
1417.87,67
1416.58,66
1415.28,76
1413.99,80
1412.69,85
1411.39,85
1410.10,86
1408.80,91
1407.50,88
1406.21,85
1404.91,79
1403.61,76
1402.32,70
1401.02,64
1399.72,63
1398.43,64
1397.13,61
1395.83,61
1394.54,60
1393.24,63
1391.95,60
1390.65,59
1389.35,62
1388.06,64
1386.76,63
1385.46,67
1384.17,71
1382.87,73
1381.57,76
1380.28,82
1378.98,89
1377.68,88
1376.39,97
1375.09,104
1373.79,110
1372.50,111
1371.20,110
1369.91,114
1368.61,121
1367.31,117
1366.02,118
1364.72,123
1363.42,120
1362.13,116
1360.83,117
1359.53,117
1358.24,109
1356.94,102
1355.64,98
1354.35,92
1353.05,88
1351.75,85
1350.46,78
1349.16,73
1347.87,71
1346.57,67
1345.27,66
1343.98,68
1342.68,70
1341.38,68
1340.09,70
1338.79,73
1337.49,73
1336.20,77
1334.90,80
1333.60,83
1332.31,89
1331.01,99
1329.71,95
1328.42,101
1327.12,105
1325.83,108
1324.53,111
1323.23,112
1321.94,115
1320.64,117
1319.34,113
1318.05,117
1316.75,115
1315.45,110
1314.16,111
1312.86,103
1311.56,106
1310.27,102
1308.97,97
1307.67,93
1306.38,91
1305.08,90
1303.79,90
1302.49,85
1301.19,84
1299.90,79
1298.60,78
1297.30,79
1296.01,75
1294.71,71
1293.41,73
1292.12,72
1290.82,71
1289.52,66
1288.23,61
1286.93,62
1285.63,64
1284.34,59
1283.04,56
1281.75,55
1280.45,55
1279.15,55
1277.86,57
1276.56,56
1275.26,54
1273.97,58
1272.67,60
1271.37,62
1270.08,68
1268.78,69
1267.48,74
1266.19,81
1264.89,82
1263.59,83
1262.30,90
1261.00,97
1259.71,100
1258.41,100
1257.11,100
1255.82,99
1254.52,97
1253.22,98
1251.93,98
1250.63,100
1249.33,90
1248.04,83
1246.74,86
1245.44,89
1244.15,80
1242.85,77
1241.55,77
1240.26,76
1238.96,74
1237.67,71
1236.37,70
1235.07,69
1233.78,67
1232.48,62
1231.18,64
1229.89,67
1228.59,64
1227.29,63
1226.00,56
1224.70,59
1223.40,54
1222.11,51
1220.81,56
1219.51,52
1218.22,46
1216.92,46
1215.63,41
1214.33,37
1213.03,37
1211.74,39
1210.44,39
1209.14,40
1207.85,42
1206.55,40
1205.25,39
1203.96,42
1202.66,49
1201.36,52
1200.07,52
1198.77,53
1197.47,52
1196.18,47
1194.88,48
1193.59,46
1192.29,37
1190.99,30
1189.70,30
1188.40,31
1187.10,24
1185.81,27
1184.51,19
1183.21,17
1181.92,19
1180.62,16
1179.32,16
1178.03,16
1176.73,19
1175.43,21
1174.14,19
1172.84,16
1171.55,24
1170.25,20
1168.95,17
1167.66,17
1166.36,18
1165.06,17
1163.77,22
1162.47,20
1161.17,25
1159.88,24
1158.58,25
1157.28,34
1155.99,35
1154.69,40
1153.40,46
1152.10,53
1150.80,57
1149.51,57
1148.21,70
1146.91,74
1145.62,74
1144.32,74
1143.02,77
1141.73,80
1140.43,82
1139.13,76
1137.84,75
1136.54,74
1135.24,72
1133.95,73
1132.65,74
1131.36,75
1130.06,75
1128.76,78
1127.47,85
1126.17,89
1124.87,90
1123.58,94
1122.28,96
1120.98,99
1119.69,108
1118.39,110
1117.09,115
1115.80,118
1114.50,127
1113.20,141
1111.91,149
1110.61,161
1109.32,170
1108.02,177
1106.72,188
1105.43,199
1104.13,200
1102.83,205
1101.54,205
1100.24,201
1098.94,198
1097.65,195
1096.35,185
1095.05,177
1093.76,165
1092.46,156
1091.16,149
1089.87,136
1088.57,122
1087.28,114
1085.98,107
1084.68,100
1083.39,92
1082.09,85
1080.79,81
1079.50,80
1078.20,77
1076.90,71
1075.61,65
1074.31,71
1073.01,69
1071.72,64
1070.42,61
1069.12,63
1067.83,63
1066.53,70
1065.24,72
1063.94,71
1062.64,73
1061.35,79
1060.05,84
1058.75,87
1057.46,92
1056.16,95
1054.86,96
1053.57,94
1052.27,95
1050.97,97
1049.68,96
1048.38,91
1047.08,85
1045.79,80
1044.49,74
1043.20,73
1041.90,75
1040.60,75
1039.31,74
1038.01,70
1036.71,70
1035.42,71
1034.12,68
1032.82,70
1031.53,74
1030.23,69
1028.93,66
1027.64,70
1026.34,68
1025.04,71
1023.75,67
1022.45,64
1021.16,66
1019.86,69
1018.56,58
1017.27,51
1015.97,51
1014.67,52
1013.38,50
1012.08,48
1010.78,47
1009.49,48
1008.19,51
1006.89,55
1005.60,60
1004.30,55
1003.00,57
1001.71,63
1000.41,67
999.12,73
997.82,72
996.52,79
995.23,81
993.93,77
992.63,78
991.34,67
990.04,58
988.74,50
987.45,43
986.15,39
984.85,43
983.56,38
982.26,38
980.96,40
979.67,38
978.37,40
977.08,38
975.78,33
974.48,33
973.19,41
971.89,37
970.59,36
969.30,45
968.00,52
966.70,52
965.41,56
964.11,55
962.81,58
961.52,64
960.22,67
958.92,73
957.63,77
956.33,88
955.04,100
953.74,107
952.44,118
951.15,134
949.85,149
948.55,160
947.26,168
945.96,168
944.66,163
943.37,162
942.07,152
940.77,128
939.48,124
938.18,109
936.88,97
935.59,86
934.29,75
933.00,78
931.70,68
930.40,60
929.11,58
927.81,55
926.51,55
925.22,50
923.92,45
922.62,42
921.33,40
920.03,43
918.73,42
917.44,41
916.14,43
914.84,47
913.55,42
912.25,40
910.96,36
909.66,34
908.36,40
907.07,42
905.77,45
904.47,48
903.18,51
901.88,50
900.58,57
899.29,59
897.99,62
896.69,70
895.40,74
894.10,74
892.80,80
891.51,88
890.21,94
888.92,97
887.62,98
886.32,91
885.03,84
883.73,84
882.43,77
881.14,67
879.84,60
878.54,54
877.25,47
875.95,40
874.65,35
873.36,30
872.06,25
870.77,28
869.47,23
868.17,20
866.88,20
865.58,20
864.28,14
862.99,12
861.69,12
860.39,14
859.10,13
857.80,14
856.50,14
855.21,16
853.91,18
852.61,17
851.32,19
850.02,20
848.73,22
847.43,24
846.13,19
844.84,22
843.54,22
842.24,19
840.95,20
839.65,21
838.35,18
837.06,15
835.76,13
834.46,12
833.17,20
831.87,13
830.57,7
829.28,13
827.98,12
826.69,16
825.39,13
824.09,6
822.80,8
821.50,14
820.20,15
818.91,10
817.61,4
816.31,8
815.02,3
813.72,2
812.42,4
811.13,5
809.83,1
808.53,-2
807.24,-4
805.94,-3
804.65,-2
803.35,-9
802.05,-10
800.76,-7
799.46,-6
798.16,-5
796.87,-5
795.57,-9
794.27,-13
792.98,-3
791.68,-5
790.38,-9
789.09,-10
787.79,-9
786.49,-10
785.20,-6
783.90,-4
782.61,-4
781.31,-1
780.01,0
778.72,-3
777.42,-5
776.12,-1
774.83,-0
773.53,-3
772.23,-3
770.94,2
769.64,4
768.34,4
767.05,6
765.75,9
764.45,10
763.16,-3
761.86,-0
760.57,5
759.27,4
757.97,1
756.68,6
755.38,8
754.08,8
752.79,13
751.49,10
750.19,13
748.90,18
747.60,17
746.30,17
745.01,13
743.71,10
742.41,8
741.12,6
739.82,7
738.53,5
737.23,3
735.93,3
734.64,-1
733.34,-1
732.04,1
730.75,-1
729.45,-5
728.15,-6
726.86,-3
725.56,1
724.26,5
722.97,5
721.67,3
720.37,-1
719.08,-6
717.78,-1
716.49,6
715.19,8
713.89,4
712.60,4
711.30,4
710.00,9
708.71,18
707.41,16
706.11,15
704.82,21
703.52,28
702.22,25
700.93,31
699.63,23
698.33,13
697.04,17
695.74,19
694.45,17
693.15,15
691.85,13
690.56,0
689.26,-2
687.96,0
686.67,3
685.37,8
684.07,5
682.78,0
681.48,-1
680.18,5
678.89,-0
677.59,-4
676.29,-3
675.00,5
673.70,-4
672.41,-2
671.11,3
669.81,1
668.52,-3
667.22,-5
665.92,-6
664.63,-4
663.33,-1
662.03,0
660.74,2
659.44,1
658.14,-4
656.85,-3
655.55,0
654.25,3
652.96,4
651.66,1
650.37,5
649.07,9
647.77,2
646.48,8
645.18,16
643.88,18
642.59,11
641.29,19
639.99,18
638.70,17
637.40,23
636.10,20
634.81,19
633.51,22
632.21,28
630.92,24
629.62,21
628.33,17
627.03,16
625.73,20
624.44,15
623.14,12
621.84,15
620.55,20
619.25,20
617.95,21
616.66,24
615.36,21
614.06,21
612.77,25
611.47,29
610.18,23
608.88,18
607.58,22
606.29,29
604.99,22
603.69,12
602.40,13
601.10,23
599.80,26
598.51,22
597.21,18
595.91,17
594.62,20
593.32,20
592.02,21
590.73,21
589.43,20
588.14,14
586.84,11
585.54,10
584.25,6
582.95,7
581.65,3
580.36,-1
579.06,0
577.76,-3
576.47,-4
575.17,-3
573.87,1
572.58,1
571.28,4
569.98,10
568.69,17
567.39,15
566.10,15
564.80,19
563.50,25
562.21,30
560.91,30
559.61,27
558.32,30
557.02,27
555.72,25
554.43,25
553.13,17
551.83,13
550.54,12
549.24,10
547.94,-1
546.65,1
545.35,4
544.06,4
542.76,4
541.46,-2
540.17,-3
538.87,1
537.57,3
536.28,-1
534.98,-2
533.68,3
532.39,-1
531.09,0
529.79,4
528.50,8
527.20,3
525.90,5
524.61,7
523.31,4
522.02,-2
520.72,-4
519.42,-1
518.13,5
516.83,5
515.53,8
514.24,10
512.94,6
511.64,3
510.35,7
509.05,10
507.75,1
506.46,12
505.16,20
503.86,20
502.57,29
501.27,36
499.98,42
498.68,48
497.38,54
496.09,66
494.79,75
493.49,77
492.20,87
490.90,91
489.60,94
488.31,97
487.01,97
485.71,92
484.42,87
483.12,86
481.82,73
480.53,65
479.23,61
477.94,54
476.64,49
475.34,43
474.05,36
472.75,23
471.45,13
470.16,11
468.86,18
467.56,31
466.27,37
464.97,42
463.67,48
462.38,49
461.08,44
459.78,43
458.49,53
457.19,59
455.90,64
454.60,68
453.30,72
452.01,76
450.71,86
449.41,102
448.12,107
446.82,111
445.52,113
444.23,111
442.93,112
441.63,115
440.34,117
439.04,112
437.74,86
436.45,77
435.15,87
433.86,86
432.56,82
431.26,76
429.97,68
428.67,62
427.37,52
426.08,41
424.78,34
423.48,39
422.19,52
420.89,64
419.59,64
418.30,67
417.00,73
415.70,80
414.41,74
413.11,76
411.82,88
410.52,109
409.22,118
407.93,124
406.63,129
405.33,133
404.04,120
402.74,101
401.44,84
400.15,72
398.85,63
397.55,62
396.26,71
394.96,72
393.66,76
392.37,82
391.07,87
389.78,82
388.48,77
387.18,72
385.89,58
384.59,59
383.29,63
382.00,63
380.70,64
379.40,72
378.11,83
376.81,87
375.51,83
374.22,81
372.92,83
371.62,88
370.33,88
369.03,81
367.74,70
366.44,70
365.14,70
363.85,69
362.55,73
361.25,80
359.96,79
358.66,69
357.36,76
356.07,68
354.77,54
353.47,56
352.18,48
350.88,40
349.59,35
348.29,31
346.99,24
345.70,15
344.40,4
343.10,2
341.81,2
340.51,3
339.21,0
337.92,12
336.62,26
335.32,33
334.03,41
332.73,39
331.43,37
330.14,55
328.84,62
327.55,69
326.25,78
324.95,79
323.66,87
322.36,91
321.06,81
319.77,78
318.47,81
317.17,88
315.88,86
314.58,85
313.28,83
311.99,79
310.69,71
309.39,70
308.10,72
306.80,60
305.51,49
304.21,39
302.91,31
301.62,27
300.32,31
299.02,37
297.73,22
296.43,17
295.13,16
293.84,10
292.54,8
291.24,8
289.95,8
288.65,5
287.35,1
286.06,1
284.76,10
283.47,4
282.17,-1
280.87,0
279.58,9
278.28,6
276.98,0
275.69,-1
274.39,1
273.09,6
271.80,9
270.50,5
269.20,2
267.91,2
266.61,4
265.31,0
264.02,-0
262.72,3
261.43,-1
260.13,-12
258.83,-20
257.54,-13
256.24,-13
254.94,-14
253.65,-12
252.35,-3
251.05,2
249.76,4
248.46,-2
247.16,10
245.87,22
244.57,23
243.27,24
241.98,15
240.68,0
239.39,-7
238.09,-11
236.79,-8
235.50,4
234.20,-0
232.90,-7
231.61,-12
230.31,-19
229.01,-16
227.72,-7
226.42,-1
225.12,-1
223.83,0
222.53,6
221.23,20
219.94,23
218.64,20
217.35,18
216.05,8
214.75,4
213.46,14
212.16,18
210.86,12
209.57,-2
208.27,3
206.97,-4
205.68,-19
204.38,-31
203.08,-34
201.79,-27
200.49,-12
