Created As Omnic File,BIOL 001
Raman Shift / cm-1,INT
3699.66,2
3698.36,2
3697.06,2
3695.77,1
3694.47,1
3693.18,1
3691.88,0
3690.58,1
3689.29,0
3687.99,0
3686.69,0
3685.40,-0
3684.10,0
3682.80,0
3681.51,0
3680.21,0
3678.91,-0
3677.62,1
3676.32,0
3675.02,0
3673.73,-0
3672.43,-0
3671.14,0
3669.84,1
3668.54,0
3667.25,0
3665.95,0
3664.65,0
3663.36,1
3662.06,1
3660.76,1
3659.47,1
3658.17,1
3656.87,-0
3655.58,1
3654.28,0
3652.98,1
3651.69,0
3650.39,-0
3649.10,0
3647.80,-1
3646.50,-0
3645.21,-1
3643.91,-0
3642.61,-1
3641.32,-1
3640.02,-0
3638.72,-1
3637.43,-0
3636.13,-0
3634.83,-1
3633.54,-0
3632.24,-0
3630.94,-0
3629.65,0
3628.35,0
3627.06,0
3625.76,0
3624.46,0
3623.17,1
3621.87,-0
3620.57,0
3619.28,1
3617.98,1
3616.68,0
3615.39,1
3614.09,-0
3612.79,0
3611.50,0
3610.20,0
3608.90,-0
3607.61,0
3606.31,-0
3605.02,-1
3603.72,-1
3602.42,-1
3601.13,-1
3599.83,-1
3598.53,-1
3597.24,0
3595.94,0
3594.64,1
3593.35,0
3592.05,1
3590.75,0
3589.46,-0
3588.16,0
3586.87,-0
3585.57,1
3584.27,0
3582.98,2
3581.68,5
3580.38,10
3579.09,12
3577.79,12
3576.49,11
3575.20,8
3573.90,3
3572.60,2
3571.31,1
3570.01,0
3568.71,1
3567.42,0
3566.12,1
3564.83,-0
3563.53,-0
3562.23,0
3560.94,-0
3559.64,0
3558.34,-1
3557.05,-0
3555.75,-1
3554.45,-0
3553.16,-0
3551.86,-1
3550.56,-0
3549.27,1
3547.97,0
3546.67,0
3545.38,0
3544.08,0
3542.79,0
3541.49,1
3540.19,1
3538.90,1
3537.60,0
3536.30,1
3535.01,1
3533.71,1
3532.41,1
3531.12,1
3529.82,1
3528.52,1
3527.23,1
3525.93,1
3524.63,0
3523.34,0
3522.04,0
3520.75,1
3519.45,1
3518.15,0
3516.86,1
3515.56,1
3514.26,1
3512.97,1
3511.67,2
3510.37,1
3509.08,1
3507.78,1
3506.48,1
3505.19,1
3503.89,2
3502.59,2
3501.30,2
3500.00,1
3498.71,2
3497.41,2
3496.11,1
3494.82,1
3493.52,1
3492.22,0
3490.93,1
3489.63,0
3488.33,1
3487.04,1
3485.74,-0
3484.44,1
3483.15,0
3481.85,0
3480.55,-0
3479.26,0
3477.96,-0
3476.67,-0
3475.37,-0
3474.07,0
3472.78,0
3471.48,0
3470.18,0
3468.89,-0
3467.59,0
3466.29,-0
3465.00,0
3463.70,-0
3462.40,-0
3461.11,-0
3459.81,-0
3458.51,0
3457.22,0
3455.92,1
3454.63,0
3453.33,0
3452.03,0
3450.74,0
3449.44,0
3448.14,0
3446.85,0
3445.55,1
3444.25,-1
3442.96,-0
3441.66,1
3440.36,-0
3439.07,0
3437.77,-0
3436.47,-0
3435.18,0
3433.88,-0
3432.59,0
3431.29,0
3429.99,-0
3428.70,-0
3427.40,0
3426.10,-0
3424.81,-0
3423.51,0
3422.21,-1
3420.92,0
3419.62,-0
3418.32,0
3417.03,-1
3415.73,0
3414.43,-1
3413.14,0
3411.84,0
3410.55,0
3409.25,0
3407.95,-0
3406.66,1
3405.36,0
3404.06,0
3402.77,1
3401.47,1
3400.17,-0
3398.88,0
3397.58,0
3396.28,-0
3394.99,0
3393.69,0
3392.39,-0
3391.10,-0
3389.80,0
3388.51,-0
3387.21,-0
3385.91,-0
3384.62,0
3383.32,-0
3382.02,-0
3380.73,-1
3379.43,0
3378.13,-0
3376.84,-1
3375.54,0
3374.24,-0
3372.95,0
3371.65,0
3370.35,-0
3369.06,0
3367.76,1
3366.47,-0
3365.17,0
3363.87,0
3362.58,0
3361.28,0
3359.98,0
3358.69,0
3357.39,1
3356.09,-0
3354.80,0
3353.50,0
3352.20,-0
3350.91,0
3349.61,-1
3348.31,-0
3347.02,-0
3345.72,-0
3344.43,0
3343.13,0
3341.83,-0
3340.54,0
3339.24,-1
3337.94,-0
3336.65,-0
3335.35,-0
3334.05,-0
3332.76,-1
3331.46,0
3330.16,0
3328.87,1
3327.57,-0
3326.27,0
3324.98,0
3323.68,0
3322.39,0
3321.09,-0
3319.79,-0
3318.50,1
3317.20,0
3315.90,-1
3314.61,0
3313.31,1
3312.01,-0
3310.72,0
3309.42,0
3308.12,0
3306.83,0
3305.53,0
3304.24,0
3302.94,-0
3301.64,1
3300.35,-0
3299.05,-0
3297.75,-0
3296.46,-0
3295.16,0
3293.86,0
3292.57,1
3291.27,-0
3289.97,1
3288.68,-0
3287.38,0
3286.08,1
3284.79,1
3283.49,1
3282.20,-0
3280.90,1
3279.60,1
3278.31,0
3277.01,0
3275.71,1
3274.42,0
3273.12,0
3271.82,1
3270.53,-0
3269.23,0
3267.93,0
3266.64,-0
3265.34,-0
3264.04,0
3262.75,0
3261.45,1
3260.16,1
3258.86,1
3257.56,0
3256.27,0
3254.97,0
3253.67,1
3252.38,0
3251.08,1
3249.78,0
3248.49,1
3247.19,1
3245.89,1
3244.60,1
3243.30,0
3242.00,0
3240.71,0
3239.41,0
3238.12,0
3236.82,0
3235.52,0
3234.23,1
3232.93,0
3231.63,1
3230.34,1
3229.04,2
3227.74,1
3226.45,1
3225.15,1
3223.85,1
3222.56,1
3221.26,1
3219.96,1
3218.67,2
3217.37,0
3216.08,1
3214.78,2
3213.48,1
3212.19,1
3210.89,1
3209.59,1
3208.30,1
3207.00,1
3205.70,1
3204.41,1
3203.11,1
3201.81,1
3200.52,1
3199.22,1
3197.92,1
3196.63,1
3195.33,1
3194.04,1
3192.74,1
3191.44,1
3190.15,0
3188.85,1
3187.55,0
3186.26,0
3184.96,0
3183.66,1
3182.37,1
3181.07,1
3179.77,0
3178.48,0
3177.18,0
3175.88,1
3174.59,0
3173.29,0
3172.00,0
3170.70,-0
3169.40,1
3168.11,0
3166.81,1
3165.51,0
3164.22,1
3162.92,1
3161.62,1
3160.33,1
3159.03,1
3157.73,-0
3156.44,0
3155.14,1
3153.84,-0
3152.55,0
3151.25,0
3149.96,0
3148.66,0
3147.36,-0
3146.07,-0
3144.77,-0
3143.47,0
3142.18,0
3140.88,-0
3139.58,0
3138.29,-0
3136.99,-0
3135.69,0
3134.40,0
3133.10,-1
3131.80,-1
3130.51,0
3129.21,1
3127.92,-1
3126.62,-1
3125.32,0
3124.03,0
3122.73,-1
3121.43,-0
3120.14,0
3118.84,0
3117.54,-0
3116.25,-0
3114.95,-0
3113.65,0
3112.36,0
3111.06,0
3109.76,-1
3108.47,-0
3107.17,0
3105.88,-0
3104.58,-1
3103.28,-1
3101.99,0
3100.69,-0
3099.39,-1
3098.10,-1
3096.80,-0
3095.50,-1
3094.21,-1
3092.91,-1
3091.61,-1
3090.32,-1
3089.02,-1
3087.72,-1
3086.43,-1
3085.13,-1
3083.84,-1
3082.54,-1
3081.24,-0
3079.95,-0
3078.65,-1
3077.35,-1
3076.06,-0
3074.76,-1
3073.46,-0
3072.17,-1
3070.87,-0
3069.57,-1
3068.28,-0
3066.98,-1
3065.68,-0
3064.39,-1
3063.09,-1
3061.80,-0
3060.50,-1
3059.20,-1
3057.91,-1
3056.61,-1
3055.31,-1
3054.02,-2
3052.72,-1
3051.42,-1
3050.13,-1
3048.83,-1
3047.53,-0
3046.24,-1
3044.94,-0
3043.65,-1
3042.35,-1
3041.05,-1
3039.76,-1
3038.46,-1
3037.16,-2
3035.87,-1
3034.57,-1
3033.27,0
3031.98,-1
3030.68,-1
3029.38,-0
3028.09,-0
3026.79,0
3025.49,-1
3024.20,-1
3022.90,-1
3021.61,-1
3020.31,0
3019.01,-1
3017.72,-1
3016.42,-1
3015.12,-1
3013.83,-1
3012.53,0
3011.23,-1
3009.94,-0
3008.64,-1
3007.34,-0
3006.05,-0
3004.75,-0
3003.45,-1
3002.16,-1
3000.86,0
2999.57,-0
2998.27,1
2996.97,1
2995.68,0
2994.38,1
2993.08,0
2991.79,2
2990.49,0
2989.19,2
2987.90,1
2986.60,2
2985.30,1
2984.01,2
2982.71,2
2981.41,2
2980.12,3
2978.82,2
2977.53,2
2976.23,3
2974.93,2
2973.64,3
2972.34,2
2971.04,4
2969.75,3
2968.45,2
2967.15,3
2965.86,3
2964.56,3
2963.26,3
2961.97,4
2960.67,3
2959.37,4
2958.08,4
2956.78,4
2955.49,3
2954.19,4
2952.89,5
2951.60,4
2950.30,5
2949.00,5
2947.71,6
2946.41,6
2945.11,6
2943.82,6
2942.52,7
2941.22,7
2939.93,7
2938.63,6
2937.33,8
2936.04,7
2934.74,8
2933.45,8
2932.15,8
2930.85,8
2929.56,7
2928.26,8
2926.96,7
2925.67,8
2924.37,7
2923.07,7
2921.78,7
2920.48,7
2919.18,6
2917.89,5
2916.59,5
2915.29,5
2914.00,6
2912.70,5
2911.41,6
2910.11,5
2908.81,5
2907.52,4
2906.22,4
2904.92,4
2903.63,4
2902.33,4
2901.03,4
2899.74,3
2898.44,3
2897.14,3
2895.85,3
2894.55,3
2893.25,3
2891.96,3
2890.66,3
2889.37,3
2888.07,2
2886.77,3
2885.48,3
2884.18,3
2882.88,2
2881.59,3
2880.29,3
2878.99,3
2877.70,3
2876.40,3
2875.10,2
2873.81,4
2872.51,4
2871.21,4
2869.92,4
2868.62,4
2867.33,5
2866.03,3
2864.73,2
2863.44,3
2862.14,2
2860.84,2
2859.55,2
2858.25,2
2856.95,2
2855.66,1
2854.36,1
2853.06,1
2851.77,2
2850.47,1
2849.17,1
2847.88,1
2846.58,1
2845.29,1
2843.99,-1
2842.69,-0
2841.40,-0
2840.10,-0
2838.80,0
2837.51,-0
2836.21,-1
2834.91,-1
2833.62,-0
2832.32,-1
2831.02,-1
2829.73,-1
2828.43,-1
2827.13,-1
2825.84,-0
2824.54,-0
2823.25,-0
2821.95,-1
2820.65,0
2819.36,-1
2818.06,-1
2816.76,-0
2815.47,-1
2814.17,-1
2812.87,-1
2811.58,-0
2810.28,-1
2808.98,-0
2807.69,-1
2806.39,0
2805.09,-0
2803.80,-0
2802.50,-0
2801.21,-1
2799.91,-1
2798.61,-1
2797.32,-1
2796.02,-1
2794.72,-2
2793.43,-1
2792.13,-0
2790.83,-2
2789.54,-1
2788.24,-1
2786.94,-1
2785.65,-1
2784.35,-1
2783.06,-1
2781.76,-0
2780.46,-1
2779.17,-1
2777.87,-0
2776.57,-1
2775.28,0
2773.98,-1
2772.68,-0
2771.39,0
2770.09,-0
2768.79,0
2767.50,0
2766.20,0
2764.90,-0
2763.61,-0
2762.31,0
2761.02,-1
2759.72,1
2758.42,-0
2757.13,0
2755.83,0
2754.53,-0
2753.24,0
2751.94,-1
2750.64,-0
2749.35,0
2748.05,-1
2746.75,-0
2745.46,-1
2744.16,-1
2742.86,-1
2741.57,0
2740.27,0
2738.98,-0
2737.68,0
2736.38,0
2735.09,-1
2733.79,1
2732.49,0
2731.20,1
2729.90,2
2728.60,1
2727.31,1
2726.01,2
2724.71,1
2723.42,1
2722.12,2
2720.82,1
2719.53,0
2718.23,1
2716.94,1
2715.64,-0
2714.34,0
2713.05,0
2711.75,0
2710.45,-0
2709.16,-1
2707.86,-0
2706.56,0
2705.27,0
2703.97,-0
2702.67,1
2701.38,-1
2700.08,-1
2698.78,-0
2697.49,0
2696.19,0
2694.90,-0
2693.60,-0
2692.30,1
2691.01,1
2689.71,1
2688.41,1
2687.12,0
2685.82,3
2684.52,3
2683.23,2
2681.93,2
2680.63,1
2679.34,1
2678.04,1
2676.74,1
2675.45,1
2674.15,0
2672.86,-1
2671.56,-0
2670.26,0
2668.97,-1
2667.67,-1
2666.37,-0
2665.08,-1
2663.78,-1
2662.48,-1
2661.19,-1
2659.89,-0
2658.59,-0
2657.30,-1
2656.00,-1
2654.70,-1
2653.41,-0
2652.11,-0
2650.82,-0
2649.52,0
2648.22,1
2646.93,-0
2645.63,-1
2644.33,0
2643.04,1
2641.74,0
2640.44,1
2639.15,1
2637.85,1
2636.55,1
2635.26,1
2633.96,1
2632.66,0
2631.37,0
2630.07,1
2628.78,0
2627.48,-0
2626.18,0
2624.89,-1
2623.59,-0
2622.29,-0
2621.00,-0
2619.70,-0
2618.40,-0
2617.11,-0
2615.81,0
2614.51,-1
2613.22,-0
2611.92,-0
2610.62,-1
2609.33,0
2608.03,0
2606.74,-0
2605.44,-1
2604.14,-0
2602.85,-0
2601.55,0
2600.25,1
2598.96,-0
2597.66,-1
2596.36,-0
2595.07,-0
2593.77,-1
2592.47,-1
2591.18,-0
2589.88,0
2588.58,-0
2587.29,0
2585.99,-0
2584.70,-1
2583.40,-0
2582.10,-1
2580.81,-1
2579.51,-0
2578.21,-1
2576.92,-1
2575.62,-1
2574.32,-1
2573.03,-1
2571.73,-2
2570.43,-1
2569.14,-2
2567.84,-2
2566.54,-1
2565.25,-1
2563.95,-0
2562.66,-1
2561.36,-1
2560.06,-1
2558.77,-0
2557.47,-1
2556.17,-0
2554.88,-0
2553.58,-1
2552.28,-1
2550.99,-1
2549.69,-0
2548.39,0
2547.10,-1
2545.80,-0
2544.50,1
2543.21,-0
2541.91,1
2540.62,0
2539.32,1
2538.02,1
2536.73,1
2535.43,0
2534.13,-0
2532.84,-0
2531.54,-0
2530.24,-0
2528.95,-1
2527.65,0
2526.35,-1
2525.06,-1
2523.76,-0
2522.46,-0
2521.17,-1
2519.87,-1
2518.58,-1
2517.28,-1
2515.98,-1
2514.69,-1
2513.39,-1
2512.09,-0
2510.80,-1
2509.50,-2
2508.20,-1
2506.91,-1
2505.61,-1
2504.31,-1
2503.02,-1
2501.72,-0
2500.43,-1
2499.13,-0
2497.83,-0
2496.54,-1
2495.24,-0
2493.94,-1
2492.65,-1
2491.35,-1
2490.05,-1
2488.76,-1
2487.46,-1
2486.16,-1
2484.87,-1
2483.57,-1
2482.27,-1
2480.98,-1
2479.68,-0
2478.39,-0
2477.09,0
2475.79,-0
2474.50,-1
2473.20,-1
2471.90,-1
2470.61,-0
2469.31,-0
2468.01,-1
2466.72,-1
2465.42,-0
2464.12,-0
2462.83,-1
2461.53,-1
2460.23,-1
2458.94,-1
2457.64,-0
2456.35,0
2455.05,-0
2453.75,-0
2452.46,0
2451.16,-1
2449.86,-1
2448.57,-0
2447.27,-0
2445.97,-1
2444.68,-0
2443.38,-0
2442.08,-1
2440.79,-0
2439.49,0
2438.19,0
2436.90,0
2435.60,-0
2434.31,1
2433.01,0
2431.71,0
2430.42,1
2429.12,0
2427.82,1
2426.53,0
2425.23,0
2423.93,0
2422.64,0
2421.34,-0
2420.04,0
2418.75,0
2417.45,1
2416.15,1
2414.86,1
2413.56,1
2412.27,1
2410.97,1
2409.67,1
2408.38,0
2407.08,1
2405.78,1
2404.49,1
2403.19,1
2401.89,0
2400.60,1
2399.30,1
2398.00,1
2396.71,1
2395.41,0
2394.11,0
2392.82,1
2391.52,1
2390.23,0
2388.93,0
2387.63,-0
2386.34,0
2385.04,-0
2383.74,0
2382.45,0
2381.15,1
2379.85,1
2378.56,0
2377.26,1
2375.96,1
2374.67,-0
2373.37,1
2372.07,0
2370.78,0
2369.48,1
2368.19,1
2366.89,1
2365.59,1
2364.30,1
2363.00,0
2361.70,0
2360.41,1
2359.11,1
2357.81,1
2356.52,1
2355.22,1
2353.92,1
2352.63,2
2351.33,0
2350.03,2
2348.74,0
2347.44,1
2346.15,0
2344.85,1
2343.55,-1
2342.26,-0
2340.96,0
2339.66,1
2338.37,0
2337.07,0
2335.77,1
2334.48,2
2333.18,0
2331.88,0
2330.59,1
2329.29,0
2327.99,-0
2326.70,-0
2325.40,0
2324.11,0
2322.81,0
2321.51,1
2320.22,1
2318.92,1
2317.62,0
2316.33,-0
2315.03,-0
2313.73,-1
2312.44,-0
2311.14,-0
2309.84,-0
2308.55,-0
2307.25,-1
2305.95,0
2304.66,-0
2303.36,-0
2302.07,1
2300.77,-0
2299.47,-0
2298.18,0
2296.88,0
2295.58,0
2294.29,0
2292.99,1
2291.69,1
2290.40,-1
2289.10,0
2287.80,0
2286.51,-1
2285.21,-1
2283.91,-1
2282.62,-1
2281.32,-1
2280.03,-1
2278.73,-0
2277.43,-1
2276.14,-0
2274.84,-0
2273.54,-0
2272.25,0
2270.95,-1
2269.65,-1
2268.36,-1
2267.06,-1
2265.76,-1
2264.47,-0
2263.17,-1
2261.87,-2
2260.58,-1
2259.28,-1
2257.99,-1
2256.69,-1
2255.39,-1
2254.10,-2
2252.80,-1
2251.50,-0
2250.21,-0
2248.91,-0
2247.61,-1
2246.32,-1
2245.02,-0
2243.72,-1
2242.43,-1
2241.13,-0
2239.84,-1
2238.54,-1
2237.24,-2
2235.95,-1
2234.65,-2
2233.35,-1
2232.06,-2
2230.76,-2
2229.46,-1
2228.17,-2
2226.87,-1
2225.57,-1
2224.28,-1
2222.98,-1
2221.68,-0
2220.39,-0
2219.09,-0
2217.80,0
2216.50,-1
2215.20,0
2213.91,-1
2212.61,-1
2211.31,-1
2210.02,-2
2208.72,-2
2207.42,-2
2206.13,-1
2204.83,-1
2203.53,-2
2202.24,-1
2200.94,-1
2199.64,0
2198.35,0
2197.05,-0
2195.76,-1
2194.46,0
2193.16,0
2191.87,-1
2190.57,-1
2189.27,-1
2187.98,-1
2186.68,-1
2185.38,-1
2184.09,-1
2182.79,-2
2181.49,-1
2180.20,-0
2178.90,-1
2177.60,-1
2176.31,-1
2175.01,-1
2173.72,-1
2172.42,-1
2171.12,-1
2169.83,-1
2168.53,-2
2167.23,-2
2165.94,-2
2164.64,-1
2163.34,-0
2162.05,-1
2160.75,-1
2159.45,-2
2158.16,-1
2156.86,-1
2155.56,-1
2154.27,0
2152.97,-1
2151.68,-1
2150.38,-0
2149.08,-1
2147.79,-2
2146.49,-1
2145.19,-1
2143.90,-1
2142.60,-2
2141.30,-2
2140.01,-1
2138.71,-0
2137.41,1
2136.12,-0
2134.82,1
2133.52,1
2132.23,0
2130.93,-0
2129.64,-0
2128.34,-1
2127.04,-1
2125.75,0
2124.45,1
2123.15,1
2121.86,1
2120.56,0
2119.26,0
2117.97,2
2116.67,1
2115.37,-0
2114.08,-0
2112.78,1
2111.48,0
2110.19,0
2108.89,-0
2107.60,1
2106.30,0
2105.00,0
2103.71,0
2102.41,0
2101.11,0
2099.82,1
2098.52,0
2097.22,1
2095.93,2
2094.63,2
2093.33,1
2092.04,2
2090.74,2
2089.44,2
2088.15,2
2086.85,2
2085.56,1
2084.26,3
2082.96,2
2081.67,1
2080.37,0
2079.07,0
2077.78,0
2076.48,-0
2075.18,-1
2073.89,-1
2072.59,-1
2071.29,-0
2070.00,-1
2068.70,0
2067.40,-1
2066.11,-1
2064.81,-0
2063.52,-0
2062.22,-1
2060.92,-1
2059.63,-0
2058.33,0
2057.03,0
2055.74,1
2054.44,0
2053.14,0
2051.85,0
2050.55,1
2049.25,0
2047.96,0
2046.66,-1
2045.36,-0
2044.07,0
2042.77,1
2041.48,-0
2040.18,2
2038.88,1
2037.59,0
2036.29,-1
2034.99,0
2033.70,-1
2032.40,-0
2031.10,-1
2029.81,-2
2028.51,-1
2027.21,-2
2025.92,-1
2024.62,-2
2023.32,-2
2022.03,-1
2020.73,-1
2019.44,-0
2018.14,-0
2016.84,-1
2015.55,-0
2014.25,-1
2012.95,-1
2011.66,-1
2010.36,-1
2009.06,-1
2007.77,-1
2006.47,-1
2005.17,-0
2003.88,-1
2002.58,-1
2001.28,-1
1999.99,-2
1998.69,-1
1997.40,-0
1996.10,-1
1994.80,-1
1993.51,-1
1992.21,-1
1990.91,-1
1989.62,-0
1988.32,-1
1987.02,-1
1985.73,0
1984.43,-1
1983.13,-0
1981.84,-1
1980.54,-1
1979.24,0
1977.95,-1
1976.65,-0
1975.36,-1
1974.06,-1
1972.76,-1
1971.47,-1
1970.17,-1
1968.87,1
1967.58,-1
1966.28,-1
1964.98,-1
1963.69,-1
1962.39,-1
1961.09,-1
1959.80,-1
1958.50,-1
1957.21,-1
1955.91,-1
1954.61,-1
1953.32,-1
1952.02,-1
1950.72,0
1949.43,0
1948.13,0
1946.83,0
1945.54,0
1944.24,0
1942.94,1
1941.65,1
1940.35,-1
1939.05,-0
1937.76,-2
1936.46,-1
1935.17,-2
1933.87,-2
1932.57,-1
1931.28,-1
1929.98,-2
1928.68,-1
1927.39,-2
1926.09,-1
1924.79,-1
1923.50,-2
1922.20,-1
1920.90,-3
1919.61,-1
1918.31,-1
1917.01,-2
1915.72,-2
1914.42,-2
1913.13,-1
1911.83,-2
1910.53,-2
1909.24,-2
1907.94,-1
1906.64,-2
1905.35,-2
1904.05,-0
1902.75,-3
1901.46,-2
1900.16,-3
1898.86,-3
1897.57,-1
1896.27,-1
1894.97,-1
1893.68,-0
1892.38,-2
1891.09,-3
1889.79,-2
1888.49,-2
1887.20,-2
1885.90,-3
1884.60,-3
1883.31,-2
1882.01,-2
1880.71,-3
1879.42,-1
1878.12,-0
1876.82,-2
1875.53,-2
1874.23,-2
1872.93,-1
1871.64,-2
1870.34,-0
1869.05,0
1867.75,-0
1866.45,-1
1865.16,-1
1863.86,-1
1862.56,-1
1861.27,-1
1859.97,-1
1858.67,-1
1857.38,-1
1856.08,-1
1854.78,-1
1853.49,-1
1852.19,-1
1850.89,-0
1849.60,-1
1848.30,-2
1847.01,-1
1845.71,-0
1844.41,-2
1843.12,-0
1841.82,-1
1840.52,-1
1839.23,-1
1837.93,-1
1836.63,-2
1835.34,-2
1834.04,-2
1832.74,-1
1831.45,-0
1830.15,-1
1828.85,-0
1827.56,1
1826.26,1
1824.97,0
1823.67,0
1822.37,-1
1821.08,-0
1819.78,-0
1818.48,-1
1817.19,-0
1815.89,-1
1814.59,-1
1813.30,-1
1812.00,-1
1810.70,-2
1809.41,-2
1808.11,-2
1806.81,-1
1805.52,-1
1804.22,-0
1802.93,1
1801.63,1
1800.33,0
1799.04,1
1797.74,-0
1796.44,-1
1795.15,0
1793.85,0
1792.55,-1
1791.26,-1
1789.96,-2
1788.66,-2
1787.37,-2
1786.07,-2
1784.77,-2
1783.48,-2
1782.18,-1
1780.89,-1
1779.59,-1
1778.29,-0
1777.00,1
1775.70,1
1774.40,1
1773.11,2
1771.81,1
1770.51,1
1769.22,1
1767.92,-1
1766.62,-1
1765.33,-0
1764.03,1
1762.73,2
1761.44,1
1760.14,1
1758.85,1
1757.55,1
1756.25,-0
1754.96,0
1753.66,-2
1752.36,-1
1751.07,-1
1749.77,-0
1748.47,1
1747.18,-0
1745.88,-1
1744.58,2
1743.29,1
1741.99,-1
1740.69,-1
1739.40,-2
1738.10,1
1736.81,1
1735.51,-0
1734.21,-2
1732.92,-1
1731.62,0
1730.32,-0
1729.03,-1
1727.73,0
1726.43,1
1725.14,-1
1723.84,-2
1722.54,0
1721.25,0
1719.95,0
1718.65,-0
1717.36,-0
1716.06,2
1714.77,1
1713.47,1
1712.17,1
1710.88,0
1709.58,0
1708.28,2
1706.99,4
1705.69,5
1704.39,3
1703.10,4
1701.80,5
1700.50,5
1699.21,6
1697.91,7
1696.62,8
1695.32,9
1694.02,11
1692.73,13
1691.43,14
1690.13,16
1688.84,15
1687.54,16
1686.24,18
1684.95,21
1683.65,23
1682.35,22
1681.06,23
1679.76,24
1678.46,24
1677.17,27
1675.87,28
1674.58,29
1673.28,27
1671.98,28
1670.69,30
1669.39,30
1668.09,31
1666.80,31
1665.50,31
1664.20,30
1662.91,30
1661.61,31
1660.31,32
1659.02,31
1657.72,29
1656.42,29
1655.13,26
1653.83,26
1652.54,24
1651.24,23
1649.94,24
1648.65,22
1647.35,21
1646.05,21
1644.76,19
1643.46,21
1642.16,20
1640.87,19
1639.57,19
1638.27,19
1636.98,19
1635.68,17
1634.38,16
1633.09,16
1631.79,16
1630.50,17
1629.20,16
1627.90,16
1626.61,15
1625.31,13
1624.01,14
1622.72,14
1621.42,13
1620.12,13
1618.83,13
1617.53,11
1616.23,9
1614.94,9
1613.64,6
1612.34,4
1611.05,4
1609.75,2
1608.46,4
1607.16,5
1605.86,5
1604.57,7
1603.27,7
1601.97,6
1600.68,6
1599.38,6
1598.08,5
1596.79,6
1595.49,6
1594.19,5
1592.90,5
1591.60,4
1590.30,2
1589.01,4
1587.71,2
1586.42,2
1585.12,2
1583.82,3
1582.53,3
1581.23,3
1579.93,3
1578.64,3
1577.34,2
1576.04,2
1574.75,2
1573.45,2
1572.15,2
1570.86,2
1569.56,2
1568.26,1
1566.97,1
1565.67,2
1564.38,1
1563.08,-0
1561.78,1
1560.49,2
1559.19,2
1557.89,3
1556.60,1
1555.30,1
1554.00,2
1552.71,1
1551.41,2
1550.11,2
1548.82,2
1547.52,2
1546.22,2
1544.93,1
1543.63,0
1542.34,1
1541.04,0
1539.74,-0
1538.45,-1
1537.15,2
1535.85,-2
1534.56,-1
1533.26,-2
1531.96,0
1530.67,-0
1529.37,-1
1528.07,1
1526.78,0
1525.48,1
1524.18,-0
1522.89,0
1521.59,0
1520.30,1
1519.00,1
1517.70,0
1516.41,-0
1515.11,-1
1513.81,-1
1512.52,-2
1511.22,1
1509.92,0
1508.63,-1
1507.33,0
1506.03,1
1504.74,-1
1503.44,-0
1502.14,-1
1500.85,1
1499.55,-2
1498.26,-1
1496.96,-0
1495.66,0
1494.37,-0
1493.07,-0
1491.77,-2
1490.48,0
1489.18,1
1487.88,2
1486.59,2
1485.29,2
1483.99,3
1482.70,4
1481.40,3
1480.10,5
1478.81,5
1477.51,7
1476.22,9
1474.92,9
1473.62,11
1472.33,15
1471.03,16
1469.73,16
1468.44,16
1467.14,18
1465.84,21
1464.55,25
1463.25,28
1461.95,29
1460.66,29
1459.36,33
1458.06,35
1456.77,37
1455.47,35
1454.18,36
1452.88,37
1451.58,39
1450.29,40
1448.99,43
1447.69,47
1446.40,43
1445.10,42
1443.80,44
1442.51,43
1441.21,42
1439.91,42
1438.62,38
1437.32,40
1436.02,39
1434.73,35
1433.43,33
1432.14,30
1430.84,28
1429.54,28
1428.25,27
1426.95,24
1425.65,25
1424.36,24
1423.06,23
1421.76,27
1420.47,27
1419.17,26
1417.87,28
1416.58,24
1415.28,24
1413.99,26
1412.69,24
1411.39,23
1410.10,22
1408.80,21
1407.50,23
1406.21,22
1404.91,18
1403.61,19
1402.32,19
1401.02,19
1399.72,19
1398.43,17
1397.13,19
1395.83,21
1394.54,19
1393.24,20
1391.95,20
1390.65,19
1389.35,18
1388.06,17
1386.76,17
1385.46,19
1384.17,17
1382.87,16
1381.57,19
1380.28,19
1378.98,16
1377.68,18
1376.39,20
1375.09,18
1373.79,19
1372.50,20
1371.20,19
1369.91,16
1368.61,17
1367.31,17
1366.02,17
1364.72,15
1363.42,15
1362.13,17
1360.83,15
1359.53,13
1358.24,14
1356.94,11
1355.64,11
1354.35,12
1353.05,14
1351.75,16
1350.46,15
1349.16,13
1347.87,17
1346.57,17
1345.27,15
1343.98,16
1342.68,19
1341.38,18
1340.09,21
1338.79,17
1337.49,18
1336.20,22
1334.90,20
1333.60,18
1332.31,19
1331.01,18
1329.71,19
1328.42,18
1327.12,19
1325.83,20
1324.53,19
1323.23,17
1321.94,21
1320.64,20
1319.34,19
1318.05,20
1316.75,23
1315.45,24
1314.16,23
1312.86,24
1311.56,24
1310.27,24
1308.97,24
1307.67,24
1306.38,24
1305.08,23
1303.79,23
1302.49,23
1301.19,25
1299.90,25
1298.60,26
1297.30,27
1296.01,28
1294.71,27
1293.41,28
1292.12,28
1290.82,29
1289.52,31
1288.23,34
1286.93,33
1285.63,32
1284.34,33
1283.04,39
1281.75,41
1280.45,41
1279.15,42
1277.86,40
1276.56,44
1275.26,47
1273.97,49
1272.67,52
1271.37,53
1270.08,51
1268.78,53
1267.48,55
1266.19,54
1264.89,56
1263.59,59
1262.30,60
1261.00,58
1259.71,63
1258.41,61
1257.11,63
1255.82,61
1254.52,59
1253.22,60
1251.93,60
1250.63,60
1249.33,58
1248.04,58
1246.74,60
1245.44,62
1244.15,62
1242.85,61
1241.55,63
1240.26,64
1238.96,64
1237.67,62
1236.37,59
1235.07,61
1233.78,60
1232.48,59
1231.18,57
1229.89,55
1228.59,54
1227.29,52
1226.00,45
1224.70,44
1223.40,43
1222.11,40
1220.81,38
1219.51,35
1218.22,34
1216.92,29
1215.63,26
1214.33,26
1213.03,25
1211.74,22
1210.44,20
1209.14,18
1207.85,17
1206.55,16
1205.25,17
1203.96,17
1202.66,16
1201.36,15
1200.07,15
1198.77,14
1197.47,14
1196.18,14
1194.88,11
1193.59,10
1192.29,7
1190.99,5
1189.70,5
1188.40,4
1187.10,4
1185.81,6
1184.51,5
1183.21,4
1181.92,3
1180.62,4
1179.32,7
1178.03,6
1176.73,4
1175.43,5
1174.14,6
1172.84,4
1171.55,4
1170.25,4
1168.95,6
1167.66,4
1166.36,3
1165.06,4
1163.77,5
1162.47,4
1161.17,4
1159.88,3
1158.58,2
1157.28,4
1155.99,7
1154.69,5
1153.40,5
1152.10,4
1150.80,3
1149.51,3
1148.21,3
1146.91,1
1145.62,1
1144.32,-0
1143.02,-1
1141.73,-1
1140.43,1
1139.13,-0
1137.84,-0
1136.54,-1
1135.24,-2
1133.95,-1
1132.65,-1
1131.36,0
1130.06,-0
1128.76,-0
1127.47,2
1126.17,4
1124.87,3
1123.58,5
1122.28,5
1120.98,5
1119.69,6
1118.39,5
1117.09,6
1115.80,7
1114.50,7
1113.20,5
1111.91,4
1110.61,10
1109.32,7
1108.02,7
1106.72,9
1105.43,10
1104.13,12
1102.83,14
1101.54,15
1100.24,16
1098.94,19
1097.65,21
1096.35,22
1095.05,21
1093.76,24
1092.46,24
1091.16,23
1089.87,29
1088.57,30
1087.28,31
1085.98,33
1084.68,33
1083.39,30
1082.09,33
1080.79,37
1079.50,41
1078.20,43
1076.90,47
1075.61,53
1074.31,55
1073.01,60
1071.72,62
1070.42,63
1069.12,65
1067.83,69
1066.53,72
1065.24,71
1063.94,69
1062.64,67
1061.35,65
1060.05,60
1058.75,62
1057.46,60
1056.16,55
1054.86,51
1053.57,50
1052.27,50
1050.97,47
1049.68,43
1048.38,41
1047.08,42
1045.79,43
1044.49,41
1043.20,41
1041.90,42
1040.60,43
1039.31,44
1038.01,44
1036.71,43
1035.42,42
1034.12,40
1032.82,39
1031.53,39
1030.23,40
1028.93,44
1027.64,45
1026.34,40
1025.04,38
1023.75,38
1022.45,39
1021.16,40
1019.86,39
1018.56,39
1017.27,36
1015.97,34
1014.67,33
1013.38,31
1012.08,30
1010.78,33
1009.49,33
1008.19,31
1006.89,30
1005.60,33
1004.30,36
1003.00,38
1001.71,39
1000.41,41
999.12,47
997.82,51
996.52,53
995.23,54
993.93,54
992.63,54
991.34,50
990.04,49
988.74,48
987.45,49
986.15,49
984.85,47
983.56,49
982.26,50
980.96,48
979.67,47
978.37,52
977.08,55
975.78,59
974.48,65
973.19,73
971.89,80
970.59,94
969.30,112
968.00,135
966.70,163
965.41,194
964.11,229
962.81,267
961.52,310
960.22,356
958.92,401
957.63,442
956.33,479
955.04,502
953.74,507
952.44,506
951.15,488
949.85,458
948.55,425
947.26,391
945.96,351
944.66,313
943.37,281
942.07,252
940.77,221
939.48,199
938.18,178
936.88,161
935.59,147
934.29,133
933.00,118
931.70,105
930.40,95
929.11,87
927.81,82
926.51,73
925.22,66
923.92,60
922.62,55
921.33,51
920.03,48
918.73,44
917.44,43
916.14,45
914.84,44
913.55,42
912.25,38
910.96,35
909.66,33
908.36,34
907.07,32
905.77,30
904.47,29
903.18,27
901.88,23
900.58,19
899.29,17
897.99,16
896.69,15
895.40,14
894.10,12
892.80,13
891.51,14
890.21,14
888.92,15
887.62,16
886.32,16
885.03,15
883.73,15
882.43,18
881.14,20
879.84,20
878.54,20
877.25,21
875.95,20
874.65,24
873.36,26
872.06,27
870.77,33
869.47,35
868.17,32
866.88,30
865.58,29
864.28,27
862.99,29
861.69,30
860.39,28
859.10,27
857.80,27
856.50,26
855.21,27
853.91,29
852.61,30
851.32,32
850.02,35
848.73,38
847.43,38
846.13,34
844.84,31
843.54,29
842.24,27
840.95,26
839.65,26
838.35,22
837.06,18
835.76,15
834.46,11
833.17,9
831.87,7
830.57,4
829.28,1
827.98,4
826.69,3
825.39,-0
824.09,-3
822.80,-1
821.50,0
820.20,1
818.91,2
817.61,3
816.31,2
815.02,-2
813.72,-1
812.42,3
811.13,6
809.83,7
808.53,9
807.24,9
805.94,8
804.65,4
803.35,1
802.05,-1
800.76,-1
799.46,-2
798.16,5
796.87,4
795.57,1
794.27,-0
792.98,-1
791.68,-1
790.38,2
789.09,5
787.79,4
786.49,1
785.20,-2
783.90,-2
782.61,-1
781.31,-0
780.01,-2
778.72,-4
777.42,-3
776.12,2
774.83,-2
773.53,-0
772.23,1
770.94,-1
769.64,-2
768.34,-0
767.05,2
765.75,1
764.45,-2
763.16,-1
761.86,1
760.57,3
759.27,5
757.97,5
756.68,4
755.38,1
754.08,0
752.79,1
751.49,8
750.19,10
748.90,9
747.60,6
746.30,-0
745.01,1
743.71,1
742.41,-1
741.12,-1
739.82,0
738.53,-2
737.23,-4
735.93,-3
734.64,-5
733.34,-1
732.04,2
730.75,-0
729.45,-1
728.15,-1
726.86,-2
725.56,-2
724.26,-0
722.97,2
721.67,2
720.37,4
719.08,8
717.78,7
716.49,5
715.19,3
713.89,-1
712.60,-2
711.30,-0
710.00,2
708.71,4
707.41,3
706.11,5
704.82,4
703.52,2
702.22,3
700.93,2
699.63,3
698.33,4
697.04,5
695.74,4
694.45,4
693.15,4
691.85,5
690.56,1
689.26,0
687.96,2
686.67,4
685.37,5
684.07,4
682.78,5
681.48,7
680.18,3
678.89,1
677.59,-0
676.29,-1
675.00,-1
673.70,-3
672.41,-3
671.11,-1
669.81,-1
668.52,-1
667.22,-0
665.92,-0
664.63,-2
663.33,-2
662.03,-0
660.74,-0
659.44,-2
658.14,0
656.85,-2
655.55,-4
654.25,-5
652.96,-6
651.66,-6
650.37,-4
649.07,-1
647.77,-3
646.48,-1
645.18,-2
643.88,-6
642.59,-8
641.29,-7
639.99,-5
638.70,-1
637.40,6
636.10,5
634.81,8
633.51,10
632.21,8
630.92,2
629.62,3
628.33,5
627.03,7
625.73,9
624.44,12
623.14,13
621.84,13
620.55,14
619.25,18
617.95,20
616.66,20
615.36,26
614.06,30
612.77,32
611.47,34
610.18,39
608.88,39
607.58,40
606.29,42
604.99,46
603.69,46
602.40,46
601.10,45
599.80,43
598.51,44
597.21,45
595.91,44
594.62,47
593.32,48
592.02,49
590.73,51
589.43,53
588.14,53
586.84,56
585.54,59
584.25,59
582.95,60
581.65,60
580.36,59
579.06,59
577.76,63
576.47,63
575.17,62
573.87,68
572.58,71
571.28,72
569.98,72
568.69,73
567.39,72
566.10,73
564.80,75
563.50,73
562.21,76
560.91,78
559.61,77
558.32,72
557.02,65
555.72,57
554.43,51
553.13,48
551.83,40
550.54,36
549.24,36
547.94,35
546.65,32
545.35,31
544.06,33
542.76,31
541.46,27
540.17,24
538.87,22
537.57,17
536.28,18
534.98,20
533.68,21
532.39,20
531.09,19
529.79,21
528.50,25
527.20,21
525.90,15
524.61,8
523.31,3
522.02,0
520.72,3
519.42,8
518.13,11
516.83,14
515.53,17
514.24,18
512.94,13
511.64,9
510.35,11
509.05,12
507.75,1
506.46,-4
505.16,-5
503.86,-4
502.57,-2
501.27,-5
499.98,-7
498.68,-4
497.38,0
496.09,3
494.79,10
493.49,22
492.20,27
490.90,35
489.60,43
488.31,49
487.01,63
485.71,69
484.42,70
483.12,71
481.82,68
480.53,61
479.23,55
477.94,51
476.64,43
475.34,36
474.05,32
472.75,30
471.45,21
470.16,18
468.86,24
467.56,37
466.27,45
464.97,50
463.67,55
462.38,58
461.08,64
459.78,68
458.49,67
457.19,75
455.90,84
454.60,86
453.30,79
452.01,82
450.71,84
449.41,81
448.12,86
446.82,103
445.52,122
444.23,134
442.93,127
441.63,121
440.34,120
439.04,128
437.74,122
436.45,121
435.15,129
433.86,131
432.56,129
431.26,120
429.97,106
428.67,98
427.37,98
426.08,102
424.78,108
423.48,125
422.19,140
420.89,153
419.59,169
418.30,174
417.00,173
415.70,169
414.41,162
413.11,156
411.82,153
410.52,157
409.22,163
407.93,152
406.63,132
405.33,119
404.04,98
402.74,84
401.44,77
400.15,64
398.85,43
397.55,33
396.26,42
394.96,45
393.66,41
392.37,33
391.07,22
389.78,19
388.48,14
387.18,6
385.89,6
384.59,6
383.29,5
382.00,3
380.70,12
379.40,19
378.11,24
376.81,30
375.51,38
374.22,42
372.92,41
371.62,36
370.33,38
369.03,32
367.74,9
366.44,3
365.14,0
363.85,-1
362.55,0
361.25,-2
359.96,2
358.66,17
357.36,20
356.07,15
354.77,13
353.47,26
352.18,19
350.88,10
349.59,5
348.29,3
346.99,4
345.70,4
344.40,1
343.10,0
341.81,-3
340.51,-6
339.21,-7
337.92,-5
336.62,1
335.32,6
334.03,0
332.73,-7
331.43,-8
330.14,0
328.84,1
327.55,0
326.25,0
324.95,-7
323.66,-7
322.36,-2
321.06,0
319.77,0
318.47,1
317.17,4
315.88,5
314.58,4
313.28,2
311.99,-1
310.69,1
309.39,4
308.10,4
306.80,-8
305.51,-1
304.21,12
302.91,13
301.62,5
300.32,0
299.02,1
297.73,7
296.43,6
295.13,1
293.84,-2
292.54,2
291.24,8
289.95,12
288.65,2
287.35,6
286.06,7
284.76,-11
283.47,-11
282.17,-6
280.87,0
279.58,1
278.28,-1
276.98,-0
275.69,6
274.39,-3
273.09,-7
271.80,-4
270.50,-13
269.20,-8
267.91,1
266.61,3
265.31,-5
264.02,-6
262.72,-0
261.43,-8
260.13,-7
258.83,-0
257.54,4
256.24,6
254.94,6
253.65,6
252.35,3
251.05,5
249.76,7
248.46,1
247.16,4
245.87,9
244.57,12
243.27,9
241.98,4
240.68,-1
239.39,0
238.09,2
236.79,9
235.50,24
234.20,14
232.90,3
231.61,-3
230.31,-1
229.01,5
227.72,11
226.42,10
225.12,4
223.83,-0
222.53,1
221.23,1
219.94,0
218.64,-0
217.35,5
216.05,6
214.75,-2
213.46,-16
212.16,-14
210.86,-9
209.57,-8
208.27,-12
206.97,-13
205.68,-10
204.38,-4
203.08,0
201.79,8
200.49,18
