Created As Omnic File,PLAS 233
Raman Shift / cm-1,INT
3418.58,-5
3417.61,-1
3416.65,-1
3415.68,-4
3414.72,-3
3413.76,-0
3412.79,-3
3411.83,-6
3410.86,-3
3409.90,-2
3408.94,-6
3407.97,-7
3407.01,-10
3406.04,-4
3405.08,8
3404.11,9
3403.15,3
3402.19,4
3401.22,5
3400.26,-0
3399.29,-2
3398.33,-4
3397.36,-1
3396.40,8
3395.44,13
3394.47,12
3393.51,9
3392.54,5
3391.58,3
3390.61,5
3389.65,16
3388.69,23
3387.72,8
3386.76,-6
3385.79,-4
3384.83,2
3383.87,8
3382.90,12
3381.94,13
3380.97,9
3380.01,-1
3379.04,-7
3378.08,-3
3377.12,3
3376.15,10
3375.19,14
3374.22,15
3373.26,15
3372.29,12
3371.33,9
3370.37,6
3369.40,1
3368.44,-2
3367.47,-3
3366.51,-3
3365.54,1
3364.58,3
3363.62,2
3362.65,-2
3361.69,-7
3360.72,-8
3359.76,-6
3358.80,-7
3357.83,-6
3356.87,-2
3355.90,1
3354.94,-2
3353.97,-5
3353.01,-6
3352.05,-8
3351.08,-5
3350.12,-3
3349.15,-3
3348.19,-2
3347.22,-0
3346.26,3
3345.30,8
3344.33,14
3343.37,12
3342.40,4
3341.44,4
3340.47,15
3339.51,20
3338.55,11
3337.58,-1
3336.62,-8
3335.65,-10
3334.69,-8
3333.73,-6
3332.76,-4
3331.80,3
3330.83,9
3329.87,5
3328.90,-4
3327.94,-9
3326.98,-5
3326.01,5
3325.05,11
3324.08,5
3323.12,-3
3322.15,-4
3321.19,-4
3320.23,-3
3319.26,1
3318.30,5
3317.33,4
3316.37,-1
3315.40,-3
3314.44,-1
3313.48,-4
3312.51,-8
3311.55,-9
3310.58,-6
3309.62,7
3308.66,18
3307.69,19
3306.73,14
3305.76,7
3304.80,2
3303.83,1
3302.87,0
3301.91,-2
3300.94,-1
3299.98,3
3299.01,4
3298.05,5
3297.08,9
3296.12,10
3295.16,10
3294.19,16
3293.23,22
3292.26,25
3291.30,22
3290.33,12
3289.37,6
3288.41,8
3287.44,14
3286.48,9
3285.51,1
3284.55,2
3283.59,9
3282.62,14
3281.66,16
3280.69,15
3279.73,15
3278.76,16
3277.80,13
3276.84,6
3275.87,-2
3274.91,-6
3273.94,-4
3272.98,-2
3272.01,-2
3271.05,-2
3270.09,1
3269.12,2
3268.16,5
3267.19,7
3266.23,7
3265.26,8
3264.30,8
3263.34,6
3262.37,6
3261.41,7
3260.44,5
3259.48,4
3258.51,5
3257.55,10
3256.59,17
3255.62,19
3254.66,17
3253.69,12
3252.73,6
3251.77,3
3250.80,2
3249.84,3
3248.87,6
3247.91,6
3246.94,7
3245.98,7
3245.02,6
3244.05,9
3243.09,13
3242.12,17
3241.16,17
3240.19,15
3239.23,18
3238.27,28
3237.30,33
3236.34,28
3235.37,30
3234.41,41
3233.44,43
3232.48,43
3231.52,48
3230.55,54
3229.59,57
3228.62,60
3227.66,66
3226.70,70
3225.73,61
3224.77,55
3223.80,63
3222.84,69
3221.87,73
3220.91,72
3219.95,66
3218.98,60
3218.02,53
3217.05,48
3216.09,48
3215.12,49
3214.16,47
3213.20,43
3212.23,35
3211.27,33
3210.30,30
3209.34,19
3208.37,11
3207.41,13
3206.45,18
3205.48,16
3204.52,12
3203.55,10
3202.59,13
3201.63,20
3200.66,24
3199.70,22
3198.73,18
3197.77,13
3196.80,10
3195.84,11
3194.88,10
3193.91,4
3192.95,2
3191.98,3
3191.02,-2
3190.05,-5
3189.09,-1
3188.13,5
3187.16,5
3186.20,4
3185.23,8
3184.27,9
3183.30,8
3182.34,5
3181.38,1
3180.41,0
3179.45,3
3178.48,4
3177.52,1
3176.56,8
3175.59,21
3174.63,23
3173.66,16
3172.70,9
3171.73,7
3170.77,19
3169.81,35
3168.84,39
3167.88,34
3166.91,30
3165.95,28
3164.98,28
3164.02,25
3163.06,21
3162.09,23
3161.13,35
3160.16,46
3159.20,50
3158.23,45
3157.27,39
3156.31,40
3155.34,45
3154.38,56
3153.41,67
3152.45,65
3151.49,61
3150.52,63
3149.56,70
3148.59,72
3147.63,71
3146.66,75
3145.70,83
3144.74,77
3143.77,67
3142.81,69
3141.84,76
3140.88,79
3139.91,77
3138.95,68
3137.99,61
3137.02,64
3136.06,65
3135.09,62
3134.13,57
3133.16,52
3132.20,55
3131.24,64
3130.27,68
3129.31,67
3128.34,67
3127.38,67
3126.42,64
3125.45,64
3124.49,71
3123.52,77
3122.56,79
3121.59,76
3120.63,74
3119.67,78
3118.70,84
3117.74,85
3116.77,81
3115.81,74
3114.84,70
3113.88,70
3112.92,77
3111.95,89
3110.99,105
3110.02,117
3109.06,120
3108.09,119
3107.13,112
3106.17,106
3105.20,111
3104.24,119
3103.27,125
3102.31,136
3101.34,150
3100.38,158
3099.42,163
3098.45,160
3097.49,152
3096.52,158
3095.56,172
3094.60,181
3093.63,186
3092.67,196
3091.70,209
3090.74,215
3089.77,219
3088.81,230
3087.85,238
3086.88,242
3085.92,249
3084.95,264
3083.99,285
3083.02,301
3082.06,312
3081.10,321
3080.13,332
3079.17,348
3078.20,366
3077.24,386
3076.27,415
3075.31,450
3074.35,490
3073.38,531
3072.42,569
3071.45,613
3070.49,674
3069.53,746
3068.56,819
3067.60,890
3066.63,970
3065.67,1060
3064.70,1166
3063.74,1284
3062.78,1416
3061.81,1557
3060.85,1699
3059.88,1853
3058.92,2031
3057.95,2224
3056.99,2405
3056.03,2574
3055.06,2734
3054.10,2891
3053.13,3041
3052.17,3156
3051.20,3201
3050.24,3191
3049.28,3136
3048.31,3037
3047.35,2893
3046.38,2718
3045.42,2526
3044.46,2324
3043.49,2139
3042.53,1974
3041.56,1838
3040.60,1733
3039.63,1653
3038.67,1596
3037.71,1566
3036.74,1566
3035.78,1591
3034.81,1622
3033.85,1658
3032.88,1711
3031.92,1782
3030.96,1839
3029.99,1873
3029.03,1899
3028.06,1918
3027.10,1905
3026.13,1864
3025.17,1799
3024.21,1715
3023.24,1631
3022.28,1548
3021.31,1461
3020.35,1372
3019.39,1313
3018.42,1284
3017.46,1278
3016.49,1290
3015.53,1319
3014.56,1363
3013.60,1426
3012.64,1506
3011.67,1592
3010.71,1684
3009.74,1776
3008.78,1853
3007.81,1900
3006.85,1910
3005.89,1873
3004.92,1798
3003.96,1683
3002.99,1550
3002.03,1415
3001.06,1284
3000.10,1164
2999.14,1060
2998.17,978
2997.21,905
2996.24,844
2995.28,796
2994.32,763
2993.35,738
2992.39,714
2991.42,694
2990.46,684
2989.49,681
2988.53,677
2987.57,673
2986.60,665
2985.64,659
2984.67,661
2983.71,670
2982.74,684
2981.78,694
2980.82,702
2979.85,716
2978.89,730
2977.92,738
2976.96,742
2975.99,751
2975.03,763
2974.07,771
2973.10,775
2972.14,770
2971.17,764
2970.21,771
2969.25,783
2968.28,787
2967.32,789
2966.35,796
2965.39,800
2964.42,804
2963.46,810
2962.50,820
2961.53,834
2960.57,846
2959.60,856
2958.64,868
2957.67,887
2956.71,916
2955.75,947
2954.78,971
2953.82,991
2952.85,1018
2951.89,1052
2950.92,1088
2949.96,1128
2949.00,1170
2948.03,1208
2947.07,1245
2946.10,1278
2945.14,1303
2944.17,1328
2943.21,1358
2942.25,1398
2941.28,1444
2940.32,1486
2939.35,1524
2938.39,1569
2937.43,1621
2936.46,1679
2935.50,1739
2934.53,1811
2933.57,1894
2932.60,1990
2931.64,2094
2930.68,2211
2929.71,2345
2928.75,2488
2927.78,2643
2926.82,2813
2925.85,2990
2924.89,3154
2923.93,3315
2922.96,3454
2922.00,3575
2921.03,3665
2920.07,3717
2919.10,3733
2918.14,3715
2917.18,3665
2916.21,3580
2915.25,3482
2914.28,3374
2913.32,3267
2912.36,3167
2911.39,3086
2910.43,3009
2909.46,2927
2908.50,2851
2907.53,2788
2906.57,2729
2905.61,2666
2904.64,2604
2903.68,2551
2902.71,2512
2901.75,2466
2900.78,2407
2899.82,2343
2898.86,2281
2897.89,2230
2896.93,2185
2895.96,2134
2895.00,2076
2894.03,2016
2893.07,1956
2892.11,1895
2891.14,1838
2890.18,1789
2889.21,1736
2888.25,1681
2887.29,1631
2886.32,1595
2885.36,1566
2884.39,1528
2883.43,1477
2882.46,1426
2881.50,1388
2880.54,1366
2879.57,1355
2878.61,1340
2877.64,1312
2876.68,1283
2875.71,1267
2874.75,1270
2873.79,1274
2872.82,1267
2871.86,1254
2870.89,1247
2869.93,1243
2868.96,1245
2868.00,1257
2867.04,1278
2866.07,1303
2865.11,1324
2864.14,1339
2863.18,1349
2862.22,1352
2861.25,1344
2860.29,1333
2859.32,1328
2858.36,1323
2857.39,1311
2856.43,1285
2855.47,1251
2854.50,1221
2853.54,1196
2852.57,1160
2851.61,1110
2850.64,1060
2849.68,1017
2848.72,975
2847.75,925
2846.79,871
2845.82,820
2844.86,770
2843.89,716
2842.93,662
2841.97,611
2841.00,558
2840.04,503
2839.07,452
2838.11,408
2837.15,358
2836.18,304
2835.22,260
2834.25,230
2833.29,204
2832.32,180
2831.36,166
2830.40,159
2829.43,147
2828.47,128
2827.50,117
2826.54,121
2825.57,118
2824.61,99
2823.65,87
2822.68,93
2821.72,103
2820.75,100
2819.79,93
2818.82,87
2817.86,77
2816.90,68
2815.93,59
2814.97,52
2814.00,50
2813.04,47
2812.08,41
2811.11,44
2810.15,47
2809.18,44
2808.22,43
2807.25,45
2806.29,36
2805.33,18
2804.36,12
2803.40,20
2802.43,25
2801.47,23
2800.50,22
2799.54,27
2798.58,30
2797.61,27
2796.65,24
2795.68,26
2794.72,29
2793.75,25
2792.79,25
2791.83,32
2790.86,33
2789.90,28
2788.93,21
2787.97,15
2787.00,16
2786.04,24
2785.08,30
2784.11,23
2783.15,13
2782.18,4
2781.22,-3
2780.26,-8
2779.29,-8
2778.33,-6
2777.36,-5
2776.40,-8
2775.43,-12
2774.47,-10
2773.51,-0
2772.54,-0
2771.58,-5
2770.61,-6
2769.65,-11
2768.68,-18
2767.72,-17
2766.76,-9
2765.79,-6
2764.83,-8
2763.86,-10
2762.90,-6
2761.93,-0
2760.97,4
2760.01,9
2759.04,12
2758.08,15
2757.11,20
2756.15,22
2755.19,22
2754.22,23
2753.26,22
2752.29,24
2751.33,32
2750.36,43
2749.40,53
2748.44,57
2747.47,55
2746.51,47
2745.54,41
2744.58,42
2743.61,54
2742.65,72
2741.69,86
2740.72,95
2739.76,105
2738.79,116
2737.83,129
2736.86,144
2735.90,158
2734.94,173
2733.97,191
2733.01,208
2732.04,220
2731.08,226
2730.12,223
2729.15,216
2728.19,212
2727.22,207
2726.26,192
2725.29,166
2724.33,142
2723.37,123
2722.40,105
2721.44,88
2720.47,72
2719.51,62
2718.54,57
2717.58,58
2716.62,66
2715.65,73
2714.69,66
2713.72,49
2712.76,37
2711.79,35
2710.83,34
2709.87,32
2708.90,33
2707.94,27
2706.97,21
2706.01,18
2705.05,10
2704.08,3
2703.12,9
2702.15,19
2701.19,23
2700.22,19
2699.26,9
2698.30,-3
2697.33,-4
2696.37,7
2695.40,12
2694.44,5
2693.47,1
2692.51,8
2691.55,16
2690.58,18
2689.62,17
2688.65,15
2687.69,11
2686.72,14
2685.76,21
2684.80,21
2683.83,15
2682.87,10
2681.90,5
2680.94,4
2679.98,7
2679.01,9
2678.05,9
2677.08,5
2676.12,-0
2675.15,0
2674.19,2
2673.23,-2
2672.26,-6
2671.30,-12
2670.33,-18
2669.37,-24
2668.40,-30
2667.44,-34
2666.48,-33
2665.51,-27
2664.55,-20
2663.58,-17
2662.62,-19
2661.65,-16
2660.69,-10
2659.73,-11
2658.76,-19
2657.80,-12
2656.83,2
2655.87,4
2654.91,-3
2653.94,-13
2652.98,-20
2652.01,-17
2651.05,-6
2650.08,1
2649.12,-4
2648.16,-11
2647.19,-12
2646.23,-14
2645.26,-15
2644.30,-10
2643.33,3
2642.37,17
2641.41,23
2640.44,22
2639.48,14
2638.51,0
2637.55,-13
2636.58,-19
2635.62,-20
2634.66,-19
2633.69,-12
2632.73,-10
2631.76,-19
2630.80,-27
2629.83,-27
2628.87,-14
2627.91,10
2626.94,29
2625.98,26
2625.01,14
2624.05,7
2623.09,7
2622.12,2
2621.16,-10
2620.19,-12
2619.23,-10
2618.26,-10
2617.30,-12
2616.34,-10
2615.37,-6
2614.41,-9
2613.44,-18
2612.48,-23
2611.51,-22
2610.55,-15
2609.59,-2
2608.62,3
2607.66,-6
2606.69,-12
2605.73,-13
2604.76,-12
2603.80,-9
2602.84,-4
2601.87,0
2600.91,2
2599.94,1
2598.98,-1
2598.02,-4
2597.05,-6
2596.09,-7
2595.12,-2
2594.16,7
2593.19,15
2592.23,19
2591.27,22
2590.30,23
2589.34,25
2588.37,32
2587.41,40
2586.44,38
2585.48,29
2584.52,26
2583.55,20
2582.59,18
2581.62,26
2580.66,31
2579.69,33
2578.73,32
2577.77,26
2576.80,15
2575.84,7
2574.87,4
2573.91,6
2572.95,17
2571.98,28
2571.02,20
2570.05,-1
2569.09,-8
2568.12,2
2567.16,15
2566.20,21
2565.23,15
2564.27,1
2563.30,-13
2562.34,-17
2561.37,-12
2560.41,-3
2559.45,-0
2558.48,-10
2557.52,-21
2556.55,-19
2555.59,-11
2554.62,-6
2553.66,-10
2552.70,-20
2551.73,-28
2550.77,-24
2549.80,-16
2548.84,-24
2547.88,-43
2546.91,-44
2545.95,-33
2544.98,-33
2544.02,-37
2543.05,-30
2542.09,-20
2541.13,-17
2540.16,-23
2539.20,-29
2538.23,-29
2537.27,-23
2536.30,-18
2535.34,-20
2534.38,-25
2533.41,-26
2532.45,-23
2531.48,-21
2530.52,-25
2529.55,-27
2528.59,-21
2527.63,-11
2526.66,-12
2525.70,-20
2524.73,-29
2523.77,-39
2522.81,-44
2521.84,-41
2520.88,-36
2519.91,-29
2518.95,-25
2517.98,-34
2517.02,-41
2516.06,-40
2515.09,-36
2514.13,-30
2513.16,-20
2512.20,-13
2511.23,-17
2510.27,-27
2509.31,-33
2508.34,-33
2507.38,-22
2506.41,-6
2505.45,-2
2504.48,-10
2503.52,-16
2502.56,-13
2501.59,-9
2500.63,-12
2499.66,-17
2498.70,-14
2497.74,-4
2496.77,8
2495.81,16
2494.84,18
2493.88,13
2492.91,3
2491.95,-4
2490.99,-5
2490.02,1
2489.06,10
2488.09,14
2487.13,7
2486.16,-6
2485.20,-12
2484.24,0
2483.27,18
2482.31,23
2481.34,21
2480.38,17
2479.41,12
2478.45,14
2477.49,19
2476.52,16
2475.56,10
2474.59,3
2473.63,0
2472.66,1
2471.70,1
2470.74,-0
2469.77,3
2468.81,2
2467.84,-2
2466.88,3
2465.92,10
2464.95,8
2463.99,3
2463.02,1
2462.06,-0
2461.09,-0
2460.13,3
2459.17,5
2458.20,1
2457.24,-4
2456.27,-5
2455.31,-2
2454.34,7
2453.38,20
2452.42,29
2451.45,30
2450.49,27
2449.52,24
2448.56,25
2447.59,27
2446.63,28
2445.67,28
2444.70,31
2443.74,44
2442.77,69
2441.81,93
2440.85,103
2439.88,102
2438.92,97
2437.95,91
2436.99,88
2436.02,85
2435.06,82
2434.10,79
2433.13,78
2432.17,83
2431.20,90
2430.24,93
2429.27,90
2428.31,76
2427.35,56
2426.38,44
2425.42,39
2424.45,37
2423.49,40
2422.52,46
2421.56,54
2420.60,61
2419.63,61
2418.67,61
2417.70,67
2416.74,68
2415.78,53
2414.81,35
2413.85,24
2412.88,17
2411.92,18
2410.95,30
2409.99,39
2409.03,35
2408.06,25
2407.10,14
2406.13,1
2405.17,-5
2404.20,7
2403.24,27
2402.28,37
2401.31,37
2400.35,28
2399.38,17
2398.42,12
2397.45,10
2396.49,10
2395.53,12
2394.56,11
2393.60,6
2392.63,1
2391.67,-4
2390.71,-6
2389.74,1
2388.78,10
2387.81,9
2386.85,1
2385.88,3
2384.92,11
2383.96,6
2382.99,-11
2382.03,-19
2381.06,-4
2380.10,16
2379.13,28
2378.17,35
2377.21,38
2376.24,35
2375.28,30
2374.31,18
2373.35,-1
2372.38,-12
2371.42,-10
2370.46,-1
2369.49,2
2368.53,-2
2367.56,-3
2366.60,3
2365.64,3
2364.67,-5
2363.71,-15
2362.74,-20
2361.78,-21
2360.81,-18
2359.85,-16
2358.89,-21
2357.92,-34
2356.96,-42
2355.99,-39
2355.03,-24
2354.06,-6
2353.10,3
2352.14,-3
2351.17,-23
2350.21,-45
2349.24,-36
2348.28,-13
2347.31,-3
2346.35,-7
2345.39,-18
2344.42,-28
2343.46,-33
2342.49,-31
2341.53,-30
2340.57,-32
2339.60,-30
2338.64,-23
2337.67,-14
2336.71,-14
2335.74,-21
2334.78,-29
2333.82,-33
2332.85,-38
2331.89,-39
2330.92,-34
2329.96,-24
2328.99,-9
2328.03,5
2327.07,9
2326.10,9
2325.14,7
2324.17,-4
2323.21,-11
2322.24,-12
2321.28,-18
2320.32,-23
2319.35,-26
2318.39,-27
2317.42,-28
2316.46,-27
2315.49,-25
2314.53,-21
2313.57,-13
2312.60,-7
2311.64,-8
2310.67,-10
2309.71,-11
2308.75,-11
2307.78,-10
2306.82,-12
2305.85,-16
2304.89,-24
2303.92,-33
2302.96,-39
2302.00,-36
2301.03,-34
2300.07,-32
2299.10,-21
2298.14,-13
2297.17,-11
2296.21,-10
2295.25,-15
2294.28,-29
2293.32,-42
2292.35,-35
2291.39,-10
2290.42,4
2289.46,-6
2288.50,-24
2287.53,-30
2286.57,-25
2285.60,-21
2284.64,-21
2283.68,-17
2282.71,-12
2281.75,-5
2280.78,4
2279.82,5
2278.85,-3
2277.89,-12
2276.93,-15
2275.96,-9
2275.00,2
2274.03,8
2273.07,2
2272.10,-7
2271.14,-9
2270.18,-6
2269.21,-5
2268.25,-7
2267.28,-7
2266.32,-5
2265.35,-2
2264.39,2
2263.43,4
2262.46,4
2261.50,9
2260.53,25
2259.57,42
2258.61,39
2257.64,16
2256.68,-12
2255.71,-30
2254.75,-29
2253.78,-10
2252.82,15
2251.86,32
2250.89,37
2249.93,31
2248.96,34
2248.00,47
2247.03,42
2246.07,22
2245.11,10
2244.14,0
2243.18,-4
2242.21,2
2241.25,7
2240.28,6
2239.32,8
2238.36,10
2237.39,11
2236.43,12
2235.46,9
2234.50,1
2233.54,-2
2232.57,6
2231.61,18
2230.64,30
2229.68,34
2228.71,23
2227.75,10
2226.79,5
2225.82,7
2224.86,10
2223.89,13
2222.93,16
2221.96,19
2221.00,23
2220.04,24
2219.07,14
2218.11,-6
2217.14,-18
2216.18,-14
2215.21,2
2214.25,25
2213.29,42
2212.32,42
2211.36,33
2210.39,27
2209.43,25
2208.47,20
2207.50,15
2206.54,13
2205.57,9
2204.61,9
2203.64,18
2202.68,29
2201.72,37
2200.75,47
2199.79,56
2198.82,62
2197.86,62
2196.89,48
2195.93,27
2194.97,9
2194.00,1
2193.04,5
2192.07,20
2191.11,38
2190.14,51
2189.18,58
2188.22,60
2187.25,60
2186.29,63
2185.32,65
2184.36,60
2183.40,49
2182.43,38
2181.47,29
2180.50,19
2179.54,14
2178.57,23
2177.61,44
2176.65,58
2175.68,55
2174.72,48
2173.75,45
2172.79,41
2171.82,31
2170.86,24
2169.90,25
2168.93,29
2167.97,31
2167.00,28
2166.04,25
2165.07,24
2164.11,31
2163.15,44
2162.18,52
2161.22,47
2160.25,38
2159.29,34
2158.32,40
2157.36,54
2156.40,66
2155.43,63
2154.47,50
2153.50,36
2152.54,26
2151.58,27
2150.61,37
2149.65,43
2148.68,38
2147.72,34
2146.75,33
2145.79,34
2144.83,41
2143.86,47
2142.90,41
2141.93,27
2140.97,13
2140.00,7
2139.04,10
2138.08,17
2137.11,26
2136.15,34
2135.18,33
2134.22,24
2133.25,23
2132.29,36
2131.33,50
2130.36,55
2129.40,48
2128.43,35
2127.47,23
2126.51,20
2125.54,25
2124.58,31
2123.61,34
2122.65,32
2121.68,23
2120.72,18
2119.76,25
2118.79,39
2117.83,37
2116.86,21
2115.90,17
2114.93,30
2113.97,37
2113.01,28
2112.04,23
2111.08,36
2110.11,47
2109.15,37
2108.18,19
2107.22,21
2106.26,35
2105.29,33
2104.33,28
2103.36,31
2102.40,36
2101.44,42
2100.47,47
2099.51,45
2098.54,35
2097.58,22
2096.61,14
2095.65,9
2094.69,2
2093.72,-4
2092.76,5
2091.79,26
2090.83,37
2089.86,30
2088.90,23
2087.94,27
2086.97,31
2086.01,30
2085.04,31
2084.08,34
2083.11,36
2082.15,39
2081.19,42
2080.22,38
2079.26,30
2078.29,32
2077.33,39
2076.37,47
2075.40,51
2074.44,49
2073.47,40
2072.51,30
2071.54,21
2070.58,12
2069.62,3
2068.65,0
2067.69,10
2066.72,28
2065.76,41
2064.79,42
2063.83,41
2062.87,43
2061.90,40
2060.94,29
2059.97,17
2059.01,12
2058.04,14
2057.08,16
2056.12,13
2055.15,6
2054.19,2
2053.22,6
2052.26,10
2051.30,9
2050.33,1
2049.37,-6
2048.40,-0
2047.44,15
2046.47,24
2045.51,24
2044.55,23
2043.58,27
2042.62,33
2041.65,41
2040.69,51
2039.72,60
2038.76,61
2037.80,49
2036.83,31
2035.87,17
2034.90,13
2033.94,17
2032.97,23
2032.01,24
2031.05,16
2030.08,5
2029.12,-1
2028.15,-3
2027.19,-1
2026.23,8
2025.26,17
2024.30,19
2023.33,17
2022.37,11
2021.40,5
2020.44,1
2019.48,-3
2018.51,-9
2017.55,-11
2016.58,-7
2015.62,-3
2014.65,-2
2013.69,0
2012.73,6
2011.76,15
2010.80,25
2009.83,32
2008.87,33
2007.90,40
2006.94,44
2005.98,30
2005.01,7
2004.05,-9
2003.08,-12
2002.12,-10
2001.15,-11
2000.19,-12
1999.23,-11
1998.26,-13
1997.30,-19
1996.33,-22
1995.37,-30
1994.41,-41
1993.44,-35
1992.48,-23
1991.51,-16
1990.55,-16
1989.58,-14
1988.62,-1
1987.66,11
1986.69,8
1985.73,-5
1984.76,-11
1983.80,-7
1982.83,6
1981.87,25
1980.91,32
1979.94,14
1978.98,-11
1978.01,-25
1977.05,-26
1976.08,-22
1975.12,-21
1974.16,-24
1973.19,-28
1972.23,-34
1971.26,-32
1970.30,-17
1969.34,6
1968.37,18
1967.41,13
1966.44,3
1965.48,-2
1964.51,-1
1963.55,-1
1962.59,-2
1961.62,-3
1960.66,-7
1959.69,-23
1958.73,-43
1957.76,-54
1956.80,-52
1955.84,-43
1954.87,-23
1953.91,-5
1952.94,-1
1951.98,-3
1951.01,-8
1950.05,-17
1949.09,-17
1948.12,-7
1947.16,0
1946.19,-3
1945.23,-11
1944.27,-13
1943.30,-7
1942.34,1
1941.37,3
1940.41,4
1939.44,1
1938.48,-6
1937.52,-13
1936.55,-18
1935.59,-23
1934.62,-21
1933.66,-11
1932.69,2
1931.73,12
1930.77,14
1929.80,9
1928.84,3
1927.87,-2
1926.91,-11
1925.94,-20
1924.98,-9
1924.02,13
1923.05,20
1922.09,22
1921.12,22
1920.16,22
1919.20,24
1918.23,30
1917.27,39
1916.30,45
1915.34,42
1914.37,33
1913.41,23
1912.45,13
1911.48,2
1910.52,-2
1909.55,-3
1908.59,-6
1907.62,-7
1906.66,-10
1905.70,-14
1904.73,-13
1903.77,-12
1902.80,-15
1901.84,-11
1900.87,-1
1899.91,1
1898.95,-11
1897.98,-17
1897.02,4
1896.05,35
1895.09,39
1894.13,19
1893.16,14
1892.20,25
1891.23,25
1890.27,10
1889.30,-6
1888.34,-10
1887.38,-1
1886.41,14
1885.45,30
1884.48,41
1883.52,38
1882.55,24
1881.59,12
1880.63,11
1879.66,14
1878.70,15
1877.73,17
1876.77,11
1875.80,-1
1874.84,-7
1873.88,6
1872.91,29
1871.95,44
1870.98,41
1870.02,24
1869.06,10
1868.09,12
1867.13,30
1866.16,49
1865.20,54
1864.23,47
1863.27,30
1862.31,9
1861.34,-8
1860.38,-18
1859.41,-23
1858.45,-21
1857.48,-11
1856.52,3
1855.56,15
1854.59,26
1853.63,36
1852.66,41
1851.70,32
1850.73,7
1849.77,-11
1848.81,-11
1847.84,0
1846.88,18
1845.91,30
1844.95,34
1843.98,37
1843.02,45
1842.06,53
1841.09,51
1840.13,30
1839.16,2
1838.20,-12
1837.24,-16
1836.27,-16
1835.31,-8
1834.34,1
1833.38,3
1832.41,-2
1831.45,-12
1830.49,-26
1829.52,-38
1828.56,-40
1827.59,-29
1826.63,-16
1825.66,-6
1824.70,4
1823.74,12
1822.77,10
1821.81,6
1820.84,-3
1819.88,-17
1818.91,-23
1817.95,-22
1816.99,-22
1816.02,-26
1815.06,-29
1814.09,-25
1813.13,-18
1812.17,-11
1811.20,-1
1810.24,9
1809.27,11
1808.31,7
1807.34,5
1806.38,5
1805.42,0
1804.45,-3
1803.49,-1
1802.52,-5
1801.56,-16
1800.59,-23
1799.63,-20
1798.67,-8
1797.70,6
1796.74,22
1795.77,27
1794.81,19
1793.84,7
1792.88,1
1791.92,-1
1790.95,1
1789.99,2
1789.02,-8
1788.06,-25
1787.10,-38
1786.13,-40
1785.17,-30
1784.20,-7
1783.24,20
1782.27,25
1781.31,10
1780.35,10
1779.38,19
1778.42,18
1777.45,15
1776.49,17
1775.52,13
1774.56,1
1773.60,-15
1772.63,-28
1771.67,-28
1770.70,-15
1769.74,5
1768.77,19
1767.81,25
1766.85,22
1765.88,12
1764.92,-2
1763.95,-12
1762.99,-8
1762.03,1
1761.06,7
1760.10,10
1759.13,3
1758.17,-18
1757.20,-44
1756.24,-56
1755.28,-50
1754.31,-35
1753.35,-17
1752.38,0
1751.42,8
1750.45,-1
1749.49,-22
1748.53,-32
1747.56,-18
1746.60,1
1745.63,6
1744.67,-0
1743.70,-5
1742.74,-4
1741.78,2
1740.81,8
1739.85,10
1738.88,2
1737.92,-10
1736.96,-12
1735.99,-0
1735.03,8
1734.06,4
1733.10,6
1732.13,23
1731.17,35
1730.21,31
1729.24,28
1728.28,42
1727.31,64
1726.35,66
1725.38,33
1724.42,-6
1723.46,-22
1722.49,-18
1721.53,-15
1720.56,-9
1719.60,5
1718.63,14
1717.67,15
1716.71,15
1715.74,13
1714.78,4
1713.81,-5
1712.85,-10
1711.89,-12
1710.92,-15
1709.96,-17
1708.99,-16
1708.03,-10
1707.06,-2
1706.10,-5
1705.14,-10
1704.17,-9
1703.21,-9
1702.24,-14
1701.28,-20
1700.31,-17
1699.35,-4
1698.39,8
1697.42,5
1696.46,-13
1695.49,-37
1694.53,-51
1693.56,-47
1692.60,-25
1691.64,0
1690.67,2
1689.71,-12
1688.74,-21
1687.78,-23
1686.81,-14
1685.85,5
1684.89,14
1683.92,5
1682.96,-11
1681.99,-25
1681.03,-29
1680.07,-20
1679.10,-2
1678.14,16
1677.17,23
1676.21,23
1675.24,36
1674.28,65
1673.32,71
1672.35,56
1671.39,44
1670.42,36
1669.46,19
1668.49,1
1667.53,0
1666.57,21
1665.60,48
1664.64,64
1663.67,63
1662.71,42
1661.74,13
1660.78,4
1659.82,23
1658.85,52
1657.89,60
1656.92,47
1655.96,33
1655.00,29
1654.03,33
1653.07,41
1652.10,52
1651.14,62
1650.17,70
1649.21,74
1648.25,72
1647.28,70
1646.32,78
1645.35,94
1644.39,116
1643.42,144
1642.46,137
1641.50,109
1640.53,108
1639.57,139
1638.60,180
1637.64,214
1636.67,238
1635.71,256
1634.75,272
1633.78,294
1632.82,326
1631.85,362
1630.89,382
1629.93,392
1628.96,421
1628.00,459
1627.03,491
1626.07,529
1625.10,577
1624.14,632
1623.18,705
1622.21,803
1621.25,925
1620.28,1072
1619.32,1252
1618.35,1465
1617.39,1714
1616.43,1997
1615.46,2282
1614.50,2569
1613.53,2744
1612.57,2839
1611.60,2790
1610.64,2623
1609.68,2400
1608.71,2137
1607.75,1875
1606.78,1654
1605.82,1471
1604.86,1310
1603.89,1167
1602.93,1046
1601.96,949
1601.00,856
1600.03,739
1599.07,628
1598.11,539
1597.14,469
1596.18,421
1595.21,386
1594.25,350
1593.28,308
1592.32,264
1591.36,229
1590.39,213
1589.43,208
1588.46,205
1587.50,208
1586.53,237
1585.57,275
1584.61,298
1583.64,311
1582.68,321
1581.71,330
1580.75,346
1579.79,378
1578.82,422
1577.86,464
1576.89,487
1575.93,480
1574.96,441
1574.00,381
1573.04,319
1572.07,267
1571.11,236
1570.14,215
1569.18,193
1568.21,161
1567.25,128
1566.29,103
1565.32,86
1564.36,76
1563.39,78
1562.43,88
1561.46,97
1560.50,93
1559.54,78
1558.57,71
1557.61,82
1556.64,97
1555.68,103
1554.72,99
1553.75,94
1552.79,90
1551.82,82
1550.86,65
1549.89,53
1548.93,60
1547.97,73
1547.00,70
1546.04,48
1545.07,29
1544.11,28
1543.14,37
1542.18,35
1541.22,20
1540.25,9
1539.29,9
1538.32,7
1537.36,-0
1536.39,-3
1535.43,-0
1534.47,1
1533.50,14
1532.54,39
1531.57,57
1530.61,57
1529.64,43
1528.68,24
1527.72,12
1526.75,18
1525.79,41
1524.82,61
1523.86,53
1522.90,28
1521.93,16
1520.97,13
1520.00,7
1519.04,12
1518.07,28
1517.11,42
1516.15,51
1515.18,54
1514.22,52
1513.25,48
1512.29,49
1511.32,56
1510.36,58
1509.40,44
1508.43,20
1507.47,7
1506.50,12
1505.54,19
1504.57,11
1503.61,-10
1502.65,-26
1501.68,-25
1500.72,-17
1499.75,-21
1498.79,-41
1497.83,-57
1496.86,-48
1495.90,-15
1494.93,7
1493.97,0
1493.00,-22
1492.04,-44
1491.08,-56
1490.11,-54
1489.15,-44
1488.18,-36
1487.22,-38
1486.25,-38
1485.29,-25
1484.33,-13
1483.36,-16
1482.40,-22
1481.43,-23
1480.47,-17
1479.50,-2
1478.54,18
1477.58,30
1476.61,30
1475.65,23
1474.68,14
1473.72,3
1472.76,5
1471.79,17
1470.83,12
1469.86,4
1468.90,15
1467.93,43
1466.97,70
1466.01,88
1465.04,98
1464.08,109
1463.11,127
1462.15,153
1461.18,169
1460.22,172
1459.26,190
1458.29,231
1457.33,288
1456.36,349
1455.40,403
1454.43,442
1453.47,467
1452.51,492
1451.54,530
1450.58,578
1449.61,623
1448.65,656
1447.69,652
1446.72,614
1445.76,574
1444.79,548
1443.83,523
1442.86,490
1441.90,463
1440.94,446
1439.97,413
1439.01,349
1438.04,282
1437.08,239
1436.11,218
1435.15,204
1434.19,185
1433.22,161
1432.26,134
1431.29,103
1430.33,69
1429.36,42
1428.40,32
1427.44,28
1426.47,32
1425.51,45
1424.54,41
1423.58,24
1422.62,12
1421.65,14
1420.69,23
1419.72,32
1418.76,34
1417.79,26
1416.83,14
1415.87,9
1414.90,11
1413.94,13
1412.97,22
1412.01,36
1411.04,45
1410.08,41
1409.12,25
1408.15,2
1407.19,-13
1406.22,-9
1405.26,5
1404.29,10
1403.33,3
1402.37,-5
1401.40,-12
1400.44,-21
1399.47,-20
1398.51,-5
1397.55,12
1396.58,14
1395.62,3
1394.65,-4
1393.69,3
1392.72,21
1391.76,34
1390.80,29
1389.83,20
1388.87,25
1387.90,49
1386.94,83
1385.97,118
1385.01,161
1384.05,234
1383.08,349
1382.12,508
1381.15,686
1380.19,834
1379.22,957
1378.26,1038
1377.30,1080
1376.33,1082
1375.37,1024
1374.40,911
1373.44,788
1372.47,675
1371.51,569
1370.55,480
1369.58,397
1368.62,327
1367.65,280
1366.69,255
1365.73,243
1364.76,235
1363.80,223
1362.83,216
1361.87,215
1360.90,227
1359.94,242
1358.98,242
1358.01,225
1357.05,200
1356.08,183
1355.12,179
1354.15,183
1353.19,193
1352.23,199
1351.26,190
1350.30,175
1349.33,165
1348.37,162
1347.40,166
1346.44,173
1345.48,176
1344.51,173
1343.55,175
1342.58,183
1341.62,191
1340.66,194
1339.69,201
1338.73,209
1337.76,213
1336.80,210
1335.83,205
1334.87,204
1333.91,212
1332.94,224
1331.98,238
1331.01,256
1330.05,280
1329.08,305
1328.12,321
1327.16,324
1326.19,319
1325.23,315
1324.26,314
1323.30,317
1322.33,320
1321.37,320
1320.41,312
1319.44,293
1318.48,272
1317.51,253
1316.55,235
1315.59,222
1314.62,222
1313.66,238
1312.69,252
1311.73,243
1310.76,217
1309.80,197
1308.84,193
1307.87,201
1306.91,213
1305.94,228
1304.98,246
1304.01,260
1303.05,260
1302.09,251
1301.12,238
1300.16,217
1299.19,200
1298.23,190
1297.26,179
1296.30,163
1295.34,147
1294.37,139
1293.41,133
1292.44,117
1291.48,95
1290.52,78
1289.55,69
1288.59,64
1287.62,63
1286.66,70
1285.69,76
1284.73,60
1283.77,16
1282.80,-37
1281.84,-66
1280.87,-66
1279.91,-44
1278.94,-20
1277.98,-3
1277.02,3
1276.05,1
1275.09,-7
1274.12,-18
1273.16,-22
1272.19,-21
1271.23,-20
1270.27,-23
1269.30,-34
1268.34,-44
1267.37,-44
1266.41,-38
1265.45,-45
1264.48,-51
1263.52,-36
1262.55,-24
1261.59,-27
1260.62,-37
1259.66,-46
1258.70,-46
1257.73,-37
1256.77,-19
1255.80,2
1254.84,10
1253.87,-4
1252.91,-30
1251.95,-56
1250.98,-78
1250.02,-86
1249.05,-80
1248.09,-63
1247.12,-39
1246.16,-16
1245.20,-2
1244.23,-1
1243.27,2
1242.30,12
1241.34,21
1240.38,17
1239.41,1
1238.45,-12
1237.48,-4
1236.52,23
1235.55,40
1234.59,41
1233.63,41
1232.66,43
1231.70,43
1230.73,36
1229.77,28
1228.80,24
1227.84,24
1226.88,38
1225.91,68
1224.95,107
1223.98,145
1223.02,180
1222.05,216
1221.09,258
1220.13,314
1219.16,392
1218.20,474
1217.23,557
1216.27,653
1215.30,768
1214.34,902
1213.38,1035
1212.41,1141
1211.45,1214
1210.48,1268
1209.52,1310
1208.56,1358
1207.59,1410
1206.63,1452
1205.66,1486
1204.70,1521
1203.73,1565
1202.77,1623
1201.81,1682
1200.84,1703
1199.88,1696
1198.91,1670
1197.95,1642
1196.98,1619
1196.02,1597
1195.06,1567
1194.09,1525
1193.13,1473
1192.16,1419
1191.20,1383
1190.23,1367
1189.27,1378
1188.31,1412
1187.34,1484
1186.38,1613
1185.41,1774
1184.45,1901
1183.49,2021
1182.52,2034
1181.56,1956
1180.59,1816
1179.63,1627
1178.66,1409
1177.70,1190
1176.74,984
1175.77,796
1174.81,679
1173.84,597
1172.88,516
1171.91,450
1170.95,410
1169.99,393
1169.02,385
1168.06,361
1167.09,339
1166.13,334
1165.16,342
1164.20,346
1163.24,341
1162.27,332
1161.31,329
1160.34,337
1159.38,343
1158.42,332
1157.45,319
1156.49,331
1155.52,359
1154.56,379
1153.59,384
1152.63,373
1151.67,348
1150.70,314
1149.74,285
1148.77,268
1147.81,257
1146.84,244
1145.88,233
1144.92,224
1143.95,215
1142.99,197
1142.02,169
1141.06,139
1140.09,109
1139.13,71
1138.17,35
1137.20,10
1136.24,-6
1135.27,-17
1134.31,-20
1133.35,-19
1132.38,-22
1131.42,-24
1130.45,-17
1129.49,-3
1128.52,12
1127.56,18
1126.60,12
1125.63,-2
1124.67,-8
1123.70,9
1122.74,33
1121.77,50
1120.81,58
1119.85,63
1118.88,72
1117.92,84
1116.95,102
1115.99,121
1115.02,132
1114.06,137
1113.10,137
1112.13,129
1111.17,113
1110.20,98
1109.24,98
1108.28,110
1107.31,122
1106.35,129
1105.38,127
1104.42,111
1103.45,92
1102.49,86
1101.53,100
1100.56,117
1099.60,146
1098.63,188
1097.67,228
1096.70,256
1095.74,268
1094.78,267
1093.81,259
1092.85,258
1091.88,280
1090.92,314
1089.95,347
1088.99,364
1088.03,364
1087.06,362
1086.10,367
1085.13,375
1084.17,371
1083.21,359
1082.24,352
1081.28,350
1080.31,347
1079.35,339
1078.38,327
1077.42,318
1076.46,318
1075.49,324
1074.53,329
1073.56,328
1072.60,319
1071.63,304
1070.67,286
1069.71,269
1068.74,261
1067.78,275
1066.81,302
1065.85,322
1064.88,322
1063.92,306
1062.96,286
1061.99,271
1061.03,257
1060.06,253
1059.10,259
1058.13,262
1057.17,263
1056.21,265
1055.24,267
1054.28,257
1053.31,256
1052.35,276
1051.39,285
1050.42,281
1049.46,272
1048.49,262
1047.53,255
1046.56,254
1045.60,266
1044.64,277
1043.67,275
1042.71,267
1041.74,264
1040.78,274
1039.81,295
1038.85,323
1037.89,350
1036.92,353
1035.96,344
1034.99,339
1034.03,335
1033.06,329
1032.10,325
1031.14,332
1030.17,344
1029.21,354
1028.24,359
1027.28,356
1026.32,340
1025.35,313
1024.39,284
1023.42,262
1022.46,254
1021.49,254
1020.53,253
1019.57,247
1018.60,234
1017.64,218
1016.67,205
1015.71,193
1014.74,183
1013.78,174
1012.82,162
1011.85,150
1010.89,145
1009.92,156
1008.96,182
1007.99,219
1007.03,273
1006.07,351
1005.10,447
1004.14,564
1003.17,707
1002.21,852
1001.25,938
1000.28,984
999.32,947
998.35,848
997.39,721
996.42,582
995.46,451
994.50,353
993.53,296
992.57,248
991.60,207
990.64,183
989.67,173
988.71,173
987.75,171
986.78,155
985.82,132
984.85,114
983.89,98
982.92,84
981.96,75
981.00,66
980.03,54
979.07,39
978.10,27
977.14,16
976.18,8
975.21,1
974.25,-1
973.28,0
972.32,8
971.35,23
970.39,34
969.43,43
968.46,60
967.50,71
966.53,65
965.57,45
964.60,34
963.64,35
962.68,45
961.71,68
960.75,94
959.78,108
958.82,100
957.85,75
956.89,55
955.93,54
954.96,56
954.00,52
953.03,46
952.07,47
951.11,59
950.14,78
949.18,85
948.21,81
947.25,80
946.28,86
945.32,91
944.36,86
943.39,69
942.43,54
941.46,58
940.50,77
939.53,100
938.57,121
937.61,140
936.64,157
935.68,166
934.71,148
933.75,129
932.78,126
931.82,135
930.86,139
929.89,128
928.93,104
927.96,85
927.00,76
926.04,67
925.07,54
924.11,42
923.14,37
922.18,41
921.21,50
920.25,59
919.29,64
918.32,55
917.36,35
916.39,13
915.43,0
914.46,-3
913.50,6
912.54,12
911.57,11
910.61,6
909.64,-1
908.68,-10
907.71,-22
906.75,-35
905.79,-53
904.82,-71
903.86,-76
902.89,-62
901.93,-37
900.96,-31
900.00,-52
899.04,-65
898.07,-78
897.11,-106
896.14,-144
895.18,-172
894.22,-163
893.25,-123
892.29,-83
891.32,-49
890.36,-23
889.39,-10
888.43,-14
887.47,-24
886.50,-18
885.54,-1
884.57,16
883.61,33
882.64,45
881.68,42
880.72,18
879.75,-27
878.79,-78
877.82,-106
876.86,-111
875.89,-99
874.93,-77
873.97,-54
873.00,-44
872.04,-39
871.07,-25
870.11,-5
869.15,6
868.18,1
867.22,-20
866.25,-49
865.29,-58
864.32,-43
863.36,-17
862.40,3
861.43,13
860.47,14
859.50,6
858.54,-22
857.57,-54
856.61,-76
855.65,-78
854.68,-62
853.72,-36
852.75,-14
851.79,2
850.82,19
849.86,44
848.90,69
847.93,85
846.97,96
846.00,120
845.04,143
844.08,168
843.11,205
842.15,260
841.18,332
840.22,418
839.25,515
838.29,621
837.33,736
836.36,854
835.40,977
834.43,1122
833.47,1319
832.50,1534
831.54,1695
830.58,1844
829.61,1964
828.65,2039
827.68,2061
826.72,2029
825.75,1942
824.79,1842
823.83,1729
822.86,1621
821.90,1529
820.93,1450
819.97,1368
819.01,1286
818.04,1222
817.08,1192
816.11,1197
815.15,1228
814.18,1275
813.22,1342
812.26,1429
811.29,1525
810.33,1622
809.36,1723
808.40,1819
807.43,1872
806.47,1887
805.51,1859
804.54,1786
803.58,1673
802.61,1526
801.65,1355
800.68,1179
799.72,1020
798.76,860
797.79,706
796.83,558
795.86,423
794.90,318
793.94,254
792.97,202
792.01,152
791.04,111
790.08,81
789.11,57
788.15,36
787.19,27
786.22,26
785.26,26
784.29,27
783.33,31
782.36,40
781.40,58
780.44,67
779.47,57
778.51,36
777.54,20
776.58,15
775.61,21
774.65,28
773.69,20
772.72,-1
771.76,-20
770.79,-22
769.83,-4
768.87,24
767.90,49
766.94,62
765.97,62
765.01,58
764.04,62
763.08,76
762.12,86
761.15,73
760.19,64
759.22,66
758.26,73
757.29,76
756.33,70
755.37,59
754.40,53
753.44,52
752.47,53
751.51,50
750.54,41
749.58,36
748.62,45
747.65,60
746.69,67
745.72,61
744.76,51
743.79,52
742.83,51
741.87,36
740.90,27
739.94,34
738.97,54
738.01,71
737.05,71
736.08,55
735.12,50
734.15,62
733.19,84
732.22,101
731.26,105
730.30,104
729.33,116
728.37,143
727.40,173
726.44,191
725.47,193
724.51,184
723.55,172
722.58,158
721.62,146
720.65,136
719.69,127
718.72,112
717.76,101
716.80,98
715.83,96
714.87,90
713.90,75
712.94,56
711.98,42
711.01,36
710.05,33
709.08,36
708.12,47
707.15,65
706.19,76
705.23,73
704.26,64
703.30,49
702.33,31
701.37,13
700.40,3
699.44,-7
698.48,-17
697.51,-25
696.55,-25
695.58,-17
694.62,-3
693.65,9
692.69,9
691.73,0
690.76,-7
689.80,-16
688.83,-35
687.87,-41
686.91,90
685.94,154
684.98,46
684.01,-96
683.05,-31
682.08,160
681.12,101
680.16,-21
679.19,-77
678.23,-51
677.26,3
676.30,19
675.33,18
674.37,9
673.41,-13
672.44,-36
671.48,-48
670.51,-45
669.55,-46
668.58,-50
667.62,-50
666.66,-47
665.69,-45
664.73,-39
663.76,-25
662.80,-16
661.84,-14
660.87,-15
659.91,-16
658.94,-18
657.98,-26
657.01,-37
656.05,-41
655.09,-36
654.12,-24
653.16,-7
652.19,12
651.23,33
650.26,50
649.30,106
648.34,218
647.37,387
646.41,653
645.44,1019
644.48,1330
643.51,1555
642.55,1671
641.59,1657
640.62,1488
639.66,1204
638.69,882
637.73,556
636.77,310
635.80,196
634.84,146
633.87,96
632.91,65
631.94,35
630.98,5
630.02,-18
629.05,-38
628.09,-40
627.12,-33
626.16,-24
625.19,-15
624.23,-7
623.27,0
622.30,3
621.34,2
620.37,3
619.41,2
618.44,-0
617.48,-5
616.52,-10
615.55,-14
614.59,-17
613.62,-21
612.66,-32
611.70,-53
610.73,-76
609.77,-85
608.80,-83
607.84,-76
606.87,-69
605.91,-66
604.95,-60
603.98,-52
603.02,-46
602.05,-47
601.09,-54
600.12,-63
599.16,-71
598.20,-80
597.23,-88
596.27,-97
595.30,-105
594.34,-105
593.37,-92
592.41,-74
591.45,-57
590.48,-45
589.52,-44
588.55,-57
587.59,-73
586.62,-79
585.66,-80
584.70,-82
583.73,-85
582.77,-82
581.80,-66
580.84,-54
579.88,-49
578.91,-48
577.95,-47
576.98,-51
576.02,-48
575.05,-30
574.09,-8
573.13,5
572.16,-1
571.20,-22
570.23,-44
569.27,-58
568.30,-64
567.34,-60
566.38,-44
565.41,-23
564.45,-13
563.48,-10
562.52,-9
561.55,-10
560.59,-21
559.63,-44
558.66,-64
557.70,-71
556.73,-64
555.77,-45
554.81,-22
553.84,-5
552.88,1
551.91,4
550.95,7
549.98,16
549.02,33
548.06,45
547.09,45
546.13,36
545.16,27
544.20,29
543.23,44
542.27,54
541.31,59
540.34,61
539.38,58
538.41,49
537.45,35
536.48,29
535.52,29
534.56,34
533.59,43
532.63,58
531.66,75
530.70,87
529.74,95
528.77,101
527.81,105
526.84,104
525.88,98
524.91,97
523.95,99
522.99,97
522.02,88
521.06,79
520.09,81
519.13,83
518.16,80
517.20,70
516.24,52
515.27,27
514.31,7
513.34,2
512.38,11
511.41,24
510.45,26
509.49,12
508.52,0
507.56,-4
506.59,0
505.63,12
504.67,26
503.70,30
502.74,27
501.77,20
500.81,16
499.84,15
498.88,15
497.92,9
496.95,-0
495.99,-7
495.02,-9
494.06,-7
493.09,-1
492.13,9
491.17,20
490.20,27
489.24,30
488.27,38
487.31,54
486.34,71
485.38,87
484.42,103
483.45,117
482.49,113
481.52,109
480.56,105
479.60,98
478.63,86
477.67,68
476.70,40
475.74,13
474.77,-4
473.81,-11
472.85,-12
471.88,-12
470.92,-7
469.95,-1
468.99,3
468.02,5
467.06,6
466.10,4
465.13,2
464.17,0
463.20,1
462.24,4
461.27,4
460.31,2
459.35,-0
458.38,-0
457.42,2
456.45,6
455.49,18
454.53,32
453.56,39
452.60,35
451.63,24
450.67,17
449.70,19
448.74,27
447.78,38
446.81,49
445.85,53
444.88,48
443.92,40
442.95,37
441.99,40
441.03,48
440.06,53
439.10,54
438.13,51
437.17,43
436.20,34
435.24,29
434.28,31
433.31,29
432.35,25
431.38,25
430.42,32
429.45,50
428.49,75
427.53,88
426.56,85
425.60,72
424.63,61
423.67,65
422.71,79
421.74,99
420.78,121
419.81,138
418.85,142
417.88,147
416.92,160
415.96,179
414.99,195
414.03,198
413.06,197
412.10,200
411.13,205
410.17,212
409.21,218
408.24,219
407.28,218
406.31,216
405.35,215
404.38,221
403.42,237
402.46,250
401.49,253
400.53,249
399.56,244
398.60,241
397.64,235
396.67,227
395.71,225
394.74,228
393.78,231
392.81,229
391.85,231
390.89,225
389.92,212
388.96,195
387.99,190
387.03,186
386.06,178
385.10,174
384.14,178
383.17,187
382.21,180
381.24,154
380.28,122
379.31,96
378.35,80
377.39,68
376.42,56
375.46,49
374.49,48
373.53,48
372.57,43
371.60,26
370.64,7
369.67,-7
368.71,-11
367.74,-10
366.78,-14
365.82,-18
364.85,-18
363.89,-12
362.92,0
361.96,13
360.99,25
360.03,33
359.07,40
358.10,50
357.14,71
356.17,97
355.21,125
354.24,150
353.28,169
352.32,169
351.35,149
350.39,132
349.42,123
348.46,126
347.50,141
346.53,168
345.57,195
344.60,220
343.64,242
342.67,263
341.71,281
340.75,296
339.78,313
338.82,333
337.85,358
336.89,385
335.92,396
334.96,400
334.00,408
333.03,429
332.07,457
331.10,474
330.14,488
329.17,507
328.21,533
327.25,565
326.28,595
325.32,616
324.35,630
323.39,635
322.43,635
321.46,636
320.50,638
319.53,631
318.57,613
317.60,584
316.64,554
315.68,539
314.71,532
313.75,523
312.78,505
311.82,479
310.85,463
309.89,448
308.93,427
307.96,392
307.00,344
306.03,297
305.07,263
304.10,247
303.14,246
302.18,250
301.21,245
300.25,234
299.28,218
298.32,196
297.36,169
296.39,153
295.43,149
294.46,148
293.50,146
292.53,139
291.57,128
290.61,114
289.64,102
288.68,91
287.71,81
286.75,71
285.78,65
284.82,63
283.86,61
282.89,59
281.93,54
280.96,50
280.00,47
279.03,45
278.07,40
277.11,29
276.14,19
275.18,11
274.21,4
273.25,-0
272.28,4
271.32,11
270.36,15
269.39,15
268.43,12
267.46,10
266.50,8
265.54,4
264.57,-2
263.61,-9
262.64,-17
261.68,-19
260.71,-15
259.75,-8
258.79,0
257.82,4
256.86,0
255.89,-6
254.93,-12
253.96,-17
253.00,-19
252.04,-15
251.07,-14
250.11,-14
249.14,-13
248.18,-10
247.21,-9
246.25,-12
245.29,-17
244.32,-23
243.36,-24
242.39,-24
241.43,-25
240.47,-25
239.50,-23
238.54,-15
237.57,-7
236.61,-4
235.64,-4
234.68,-2
233.72,8
232.75,18
231.79,32
230.82,49
229.86,71
228.89,98
227.93,141
226.97,180
226.00,204
225.04,209
224.07,200
223.11,176
222.14,142
221.18,106
220.22,72
219.25,38
218.29,29
217.32,36
216.36,44
215.40,42
214.43,30
213.47,11
212.50,-4
211.54,-6
210.57,5
209.61,28
208.65,45
207.68,49
206.72,39
205.75,18
204.79,-1
203.82,-3
202.86,8
201.90,24
200.93,38
199.97,43
199.00,45
198.04,53
197.07,68
196.11,89
195.15,103
194.18,111
193.22,116
192.25,122
191.29,128
190.33,137
189.36,145
188.40,154
187.43,163
186.47,176
185.50,195
184.54,211
183.58,225
182.61,236
181.65,247
180.68,259
179.72,269
178.75,282
177.79,303
176.83,337
175.86,377
174.90,410
173.93,438
172.97,464
172.00,494
171.04,526
170.08,551
169.11,572
168.15,589
167.18,607
166.22,633
165.26,668
164.29,711
163.33,760
162.36,808
161.40,848
160.43,884
159.47,921
158.51,959
157.54,996
156.58,1032
155.61,1067
154.65,1102
153.68,1137
152.72,1178
151.76,1209
150.79,1231
149.83,1250
148.86,1277
147.90,1318
146.93,1363
145.97,1411
145.01,1458
144.04,1500
143.08,1529
142.11,1558
141.15,1597
140.19,1649
139.22,1710
138.26,1766
137.29,1819
136.33,1867
135.36,1911
134.40,1939
133.44,1961
132.47,1990
131.51,2032
130.54,2092
129.58,2173
128.61,2262
127.65,2352
126.69,2436
125.72,2513
124.76,2592
123.79,2679
122.83,2776
121.86,2885
120.90,3012
119.94,3153
118.97,3298
118.01,3451
117.04,3610
116.08,3770
115.11,3919
114.15,4069
113.19,4231
112.22,4416
111.26,4630
110.29,4859
109.33,5098
108.37,5346
107.40,5601
106.44,5859
105.47,6118
104.51,6381
103.54,6652
102.58,6933
101.62,7224
100.65,7524
99.69,7835
98.72,8155
97.76,8481
96.79,8801
95.83,9126
94.87,9463
93.90,9817
92.94,10195
91.97,10575
91.01,10954
90.04,11334
89.08,11713
88.12,12089
87.15,12454
86.19,12808
85.22,13158
84.26,13514
83.30,13883
82.33,14259
81.37,14626
80.40,14967
79.44,15285
78.47,15625
77.51,15982
76.55,16344
