Created As Omnic File,PLAS 189
Raman Shift / cm-1,INT
3418.58,-2
3417.61,-0
3416.65,-1
3415.68,-2
3414.72,-3
3413.76,-3
3412.79,-2
3411.83,-1
3410.86,-0
3409.90,-0
3408.94,-2
3407.97,-2
3407.01,-0
3406.04,0
3405.08,1
3404.11,2
3403.15,4
3402.19,4
3401.22,2
3400.26,2
3399.29,2
3398.33,0
3397.36,0
3396.40,2
3395.44,5
3394.47,8
3393.51,9
3392.54,7
3391.58,6
3390.61,6
3389.65,7
3388.69,7
3387.72,6
3386.76,5
3385.79,5
3384.83,5
3383.87,6
3382.90,6
3381.94,4
3380.97,3
3380.01,2
3379.04,2
3378.08,4
3377.12,3
3376.15,2
3375.19,5
3374.22,9
3373.26,10
3372.29,9
3371.33,8
3370.37,6
3369.40,7
3368.44,7
3367.47,6
3366.51,5
3365.54,4
3364.58,4
3363.62,4
3362.65,2
3361.69,1
3360.72,1
3359.76,1
3358.80,1
3357.83,2
3356.87,4
3355.90,5
3354.94,2
3353.97,0
3353.01,-1
3352.05,-2
3351.08,-2
3350.12,-2
3349.15,-2
3348.19,-2
3347.22,-1
3346.26,-0
3345.30,-0
3344.33,-1
3343.37,-2
3342.40,-3
3341.44,-3
3340.47,-5
3339.51,-4
3338.55,-2
3337.58,-1
3336.62,-3
3335.65,-4
3334.69,-4
3333.73,-5
3332.76,-6
3331.80,-4
3330.83,-2
3329.87,-4
3328.90,-8
3327.94,-9
3326.98,-8
3326.01,-7
3325.05,-6
3324.08,-5
3323.12,-5
3322.15,-5
3321.19,-4
3320.23,-4
3319.26,-3
3318.30,-4
3317.33,-4
3316.37,-5
3315.40,-5
3314.44,-5
3313.48,-5
3312.51,-5
3311.55,-4
3310.58,-4
3309.62,-5
3308.66,-5
3307.69,-4
3306.73,-4
3305.76,-4
3304.80,-3
3303.83,-3
3302.87,-3
3301.91,-5
3300.94,-4
3299.98,-2
3299.01,-1
3298.05,1
3297.08,0
3296.12,-1
3295.16,-1
3294.19,0
3293.23,2
3292.26,3
3291.30,1
3290.33,-2
3289.37,-2
3288.41,-2
3287.44,-3
3286.48,-3
3285.51,-3
3284.55,-1
3283.59,0
3282.62,-1
3281.66,-2
3280.69,0
3279.73,2
3278.76,2
3277.80,1
3276.84,-1
3275.87,-2
3274.91,-2
3273.94,-1
3272.98,-1
3272.01,-1
3271.05,-0
3270.09,1
3269.12,3
3268.16,2
3267.19,0
3266.23,-0
3265.26,0
3264.30,-1
3263.34,-2
3262.37,1
3261.41,3
3260.44,3
3259.48,1
3258.51,1
3257.55,0
3256.59,0
3255.62,0
3254.66,-0
3253.69,-1
3252.73,-3
3251.77,-3
3250.80,-3
3249.84,-4
3248.87,-4
3247.91,-3
3246.94,-0
3245.98,-2
3245.02,-3
3244.05,-3
3243.09,-3
3242.12,-5
3241.16,-6
3240.19,-5
3239.23,-2
3238.27,-1
3237.30,-1
3236.34,-3
3235.37,-4
3234.41,-2
3233.44,-3
3232.48,-4
3231.52,-5
3230.55,-6
3229.59,-6
3228.62,-6
3227.66,-7
3226.70,-9
3225.73,-9
3224.77,-8
3223.80,-9
3222.84,-10
3221.87,-10
3220.91,-10
3219.95,-10
3218.98,-9
3218.02,-8
3217.05,-9
3216.09,-11
3215.12,-11
3214.16,-9
3213.20,-9
3212.23,-11
3211.27,-10
3210.30,-8
3209.34,-9
3208.37,-11
3207.41,-11
3206.45,-11
3205.48,-11
3204.52,-13
3203.55,-13
3202.59,-12
3201.63,-11
3200.66,-9
3199.70,-8
3198.73,-8
3197.77,-10
3196.80,-10
3195.84,-9
3194.88,-9
3193.91,-10
3192.95,-10
3191.98,-10
3191.02,-10
3190.05,-10
3189.09,-10
3188.13,-9
3187.16,-6
3186.20,-5
3185.23,-6
3184.27,-7
3183.30,-7
3182.34,-6
3181.38,-6
3180.41,-5
3179.45,-3
3178.48,-2
3177.52,-2
3176.56,-2
3175.59,-2
3174.63,-3
3173.66,-5
3172.70,-6
3171.73,-5
3170.77,-2
3169.81,0
3168.84,-1
3167.88,-3
3166.91,-2
3165.95,-1
3164.98,-1
3164.02,-2
3163.06,-2
3162.09,-1
3161.13,-0
3160.16,0
3159.20,1
3158.23,-1
3157.27,-2
3156.31,-2
3155.34,0
3154.38,3
3153.41,4
3152.45,2
3151.49,-0
3150.52,-0
3149.56,1
3148.59,0
3147.63,-2
3146.66,-0
3145.70,3
3144.74,5
3143.77,5
3142.81,5
3141.84,5
3140.88,5
3139.91,4
3138.95,3
3137.99,2
3137.02,4
3136.06,5
3135.09,4
3134.13,3
3133.16,2
3132.20,3
3131.24,4
3130.27,4
3129.31,3
3128.34,4
3127.38,6
3126.42,5
3125.45,1
3124.49,1
3123.52,3
3122.56,2
3121.59,-0
3120.63,-0
3119.67,0
3118.70,0
3117.74,-1
3116.77,-1
3115.81,-0
3114.84,-1
3113.88,-2
3112.92,-3
3111.95,-3
3110.99,-0
3110.02,0
3109.06,-2
3108.09,-4
3107.13,-4
3106.17,-4
3105.20,-2
3104.24,-1
3103.27,-1
3102.31,-2
3101.34,-2
3100.38,-3
3099.42,-5
3098.45,-6
3097.49,-7
3096.52,-6
3095.56,-4
3094.60,-4
3093.63,-6
3092.67,-7
3091.70,-5
3090.74,-4
3089.77,-3
3088.81,-3
3087.85,-4
3086.88,-4
3085.92,-5
3084.95,-5
3083.99,-4
3083.02,-4
3082.06,-4
3081.10,-4
3080.13,-4
3079.17,-5
3078.20,-6
3077.24,-8
3076.27,-7
3075.31,-4
3074.35,-2
3073.38,-2
3072.42,-4
3071.45,-4
3070.49,-4
3069.53,-4
3068.56,-4
3067.60,-5
3066.63,-5
3065.67,-2
3064.70,-1
3063.74,-2
3062.78,-2
3061.81,-3
3060.85,-4
3059.88,-3
3058.92,-2
3057.95,-0
3056.99,0
3056.03,-1
3055.06,-2
3054.10,-3
3053.13,-1
3052.17,1
3051.20,-1
3050.24,-3
3049.28,-2
3048.31,-1
3047.35,0
3046.38,1
3045.42,2
3044.46,2
3043.49,0
3042.53,-1
3041.56,2
3040.60,2
3039.63,-1
3038.67,-1
3037.71,1
3036.74,3
3035.78,3
3034.81,3
3033.85,4
3032.88,2
3031.92,0
3030.96,1
3029.99,4
3029.03,4
3028.06,3
3027.10,2
3026.13,1
3025.17,1
3024.21,2
3023.24,2
3022.28,1
3021.31,1
3020.35,1
3019.39,-0
3018.42,0
3017.46,1
3016.49,3
3015.53,4
3014.56,5
3013.60,3
3012.64,2
3011.67,2
3010.71,2
3009.74,1
3008.78,0
3007.81,0
3006.85,1
3005.89,1
3004.92,1
3003.96,1
3002.99,0
3002.03,-1
3001.06,-1
3000.10,0
2999.14,1
2998.17,-2
2997.21,-4
2996.24,-4
2995.28,-3
2994.32,-2
2993.35,-1
2992.39,-2
2991.42,-2
2990.46,-1
2989.49,-0
2988.53,-1
2987.57,-2
2986.60,-4
2985.64,-5
2984.67,-3
2983.71,-2
2982.74,-1
2981.78,-1
2980.82,-0
2979.85,-0
2978.89,0
2977.92,-0
2976.96,-0
2975.99,1
2975.03,2
2974.07,3
2973.10,3
2972.14,2
2971.17,2
2970.21,3
2969.25,5
2968.28,6
2967.32,6
2966.35,5
2965.39,4
2964.42,5
2963.46,6
2962.50,4
2961.53,3
2960.57,5
2959.60,6
2958.64,6
2957.67,7
2956.71,10
2955.75,12
2954.78,10
2953.82,7
2952.85,6
2951.89,6
2950.92,9
2949.96,11
2949.00,9
2948.03,7
2947.07,6
2946.10,5
2945.14,4
2944.17,3
2943.21,3
2942.25,3
2941.28,3
2940.32,4
2939.35,5
2938.39,4
2937.43,0
2936.46,-2
2935.50,-3
2934.53,-3
2933.57,-0
2932.60,1
2931.64,0
2930.68,-2
2929.71,-4
2928.75,-5
2927.78,-4
2926.82,-4
2925.85,-5
2924.89,-5
2923.93,-5
2922.96,-5
2922.00,-6
2921.03,-5
2920.07,-4
2919.10,-2
2918.14,-2
2917.18,-1
2916.21,-1
2915.25,-2
2914.28,-4
2913.32,-5
2912.36,-5
2911.39,-5
2910.43,-4
2909.46,-4
2908.50,-3
2907.53,-2
2906.57,-1
2905.61,-3
2904.64,-6
2903.68,-4
2902.71,-0
2901.75,0
2900.78,-1
2899.82,-1
2898.86,-1
2897.89,-1
2896.93,-0
2895.96,1
2895.00,1
2894.03,0
2893.07,-2
2892.11,-5
2891.14,-7
2890.18,-5
2889.21,-3
2888.25,-5
2887.29,-7
2886.32,-6
2885.36,-3
2884.39,-0
2883.43,1
2882.46,1
2881.50,0
2880.54,-1
2879.57,-2
2878.61,1
2877.64,1
2876.68,-1
2875.71,-1
2874.75,0
2873.79,1
2872.82,0
2871.86,-1
2870.89,-1
2869.93,-1
2868.96,-3
2868.00,-3
2867.04,-1
2866.07,0
2865.11,1
2864.14,1
2863.18,2
2862.22,2
2861.25,0
2860.29,-1
2859.32,1
2858.36,2
2857.39,1
2856.43,-0
2855.47,1
2854.50,3
2853.54,4
2852.57,4
2851.61,2
2850.64,0
2849.68,-1
2848.72,-2
2847.75,-4
2846.79,-5
2845.82,-4
2844.86,-4
2843.89,-4
2842.93,-4
2841.97,-3
2841.00,-2
2840.04,-1
2839.07,-2
2838.11,-3
2837.15,-5
2836.18,-7
2835.22,-8
2834.25,-8
2833.29,-7
2832.32,-5
2831.36,-3
2830.40,-2
2829.43,-1
2828.47,-2
2827.50,-2
2826.54,-1
2825.57,0
2824.61,0
2823.65,-0
2822.68,1
2821.72,3
2820.75,4
2819.79,4
2818.82,5
2817.86,4
2816.90,2
2815.93,1
2814.97,2
2814.00,3
2813.04,3
2812.08,2
2811.11,3
2810.15,5
2809.18,5
2808.22,5
2807.25,4
2806.29,3
2805.33,4
2804.36,3
2803.40,-1
2802.43,-2
2801.47,0
2800.50,3
2799.54,4
2798.58,4
2797.61,2
2796.65,0
2795.68,0
2794.72,1
2793.75,1
2792.79,1
2791.83,1
2790.86,1
2789.90,0
2788.93,0
2787.97,2
2787.00,4
2786.04,5
2785.08,5
2784.11,4
2783.15,2
2782.18,-1
2781.22,-3
2780.26,-3
2779.29,-2
2778.33,-0
2777.36,1
2776.40,1
2775.43,-0
2774.47,-1
2773.51,-0
2772.54,-1
2771.58,-2
2770.61,-2
2769.65,-2
2768.68,-5
2767.72,-6
2766.76,-5
2765.79,-4
2764.83,-3
2763.86,-2
2762.90,-1
2761.93,-1
2760.97,-3
2760.01,-5
2759.04,-4
2758.08,-3
2757.11,-3
2756.15,-3
2755.19,-2
2754.22,0
2753.26,1
2752.29,1
2751.33,-1
2750.36,-2
2749.40,1
2748.44,4
2747.47,4
2746.51,1
2745.54,-1
2744.58,-3
2743.61,-4
2742.65,-3
2741.69,-2
2740.72,-1
2739.76,-2
2738.79,-3
2737.83,-4
2736.86,-4
2735.90,-4
2734.94,-2
2733.97,1
2733.01,5
2732.04,4
2731.08,-1
2730.12,-2
2729.15,-1
2728.19,-0
2727.22,-0
2726.26,1
2725.29,2
2724.33,3
2723.37,2
2722.40,2
2721.44,3
2720.47,2
2719.51,2
2718.54,2
2717.58,3
2716.62,5
2715.65,7
2714.69,7
2713.72,5
2712.76,3
2711.79,2
2710.83,2
2709.87,5
2708.90,5
2707.94,1
2706.97,-0
2706.01,1
2705.05,1
2704.08,-1
2703.12,-1
2702.15,2
2701.19,3
2700.22,1
2699.26,0
2698.30,1
2697.33,1
2696.37,-0
2695.40,-1
2694.44,-0
2693.47,0
2692.51,-0
2691.55,-1
2690.58,-2
2689.62,-1
2688.65,2
2687.69,4
2686.72,0
2685.76,-3
2684.80,-2
2683.83,-1
2682.87,-4
2681.90,-7
2680.94,-6
2679.98,-5
2679.01,-4
2678.05,-4
2677.08,-4
2676.12,-3
2675.15,-3
2674.19,-3
2673.23,-6
2672.26,-8
2671.30,-9
2670.33,-8
2669.37,-9
2668.40,-9
2667.44,-9
2666.48,-8
2665.51,-7
2664.55,-7
2663.58,-8
2662.62,-9
2661.65,-10
2660.69,-9
2659.73,-9
2658.76,-10
2657.80,-10
2656.83,-9
2655.87,-9
2654.91,-9
2653.94,-10
2652.98,-11
2652.01,-11
2651.05,-10
2650.08,-9
2649.12,-10
2648.16,-12
2647.19,-14
2646.23,-14
2645.26,-14
2644.30,-11
2643.33,-7
2642.37,-4
2641.41,-3
2640.44,-5
2639.48,-8
2638.51,-11
2637.55,-11
2636.58,-9
2635.62,-11
2634.66,-12
2633.69,-10
2632.73,-8
2631.76,-11
2630.80,-12
2629.83,-10
2628.87,-6
2627.91,-3
2626.94,-3
2625.98,-4
2625.01,-7
2624.05,-8
2623.09,-6
2622.12,-5
2621.16,-5
2620.19,-3
2619.23,-1
2618.26,-0
2617.30,-1
2616.34,-2
2615.37,-1
2614.41,0
2613.44,2
2612.48,3
2611.51,2
2610.55,1
2609.59,2
2608.62,3
2607.66,2
2606.69,3
2605.73,5
2604.76,6
2603.80,7
2602.84,8
2601.87,7
2600.91,7
2599.94,9
2598.98,11
2598.02,12
2597.05,12
2596.09,11
2595.12,11
2594.16,10
2593.19,11
2592.23,14
2591.27,16
2590.30,16
2589.34,15
2588.37,15
2587.41,16
2586.44,15
2585.48,12
2584.52,12
2583.55,11
2582.59,11
2581.62,12
2580.66,13
2579.69,12
2578.73,11
2577.77,9
2576.80,7
2575.84,6
2574.87,6
2573.91,5
2572.95,5
2571.98,5
2571.02,4
2570.05,4
2569.09,4
2568.12,6
2567.16,7
2566.20,5
2565.23,3
2564.27,1
2563.30,0
2562.34,-1
2561.37,-2
2560.41,-2
2559.45,-3
2558.48,-2
2557.52,-1
2556.55,-3
2555.59,-5
2554.62,-5
2553.66,-6
2552.70,-8
2551.73,-9
2550.77,-9
2549.80,-10
2548.84,-10
2547.88,-10
2546.91,-9
2545.95,-7
2544.98,-7
2544.02,-8
2543.05,-8
2542.09,-8
2541.13,-9
2540.16,-11
2539.20,-12
2538.23,-10
2537.27,-7
2536.30,-7
2535.34,-9
2534.38,-10
2533.41,-11
2532.45,-9
2531.48,-8
2530.52,-9
2529.55,-10
2528.59,-9
2527.63,-7
2526.66,-5
2525.70,-4
2524.73,-5
2523.77,-7
2522.81,-9
2521.84,-10
2520.88,-10
2519.91,-11
2518.95,-9
2517.98,-8
2517.02,-8
2516.06,-7
2515.09,-7
2514.13,-5
2513.16,-4
2512.20,-3
2511.23,-5
2510.27,-8
2509.31,-9
2508.34,-9
2507.38,-7
2506.41,-4
2505.45,-3
2504.48,-5
2503.52,-7
2502.56,-7
2501.59,-7
2500.63,-7
2499.66,-7
2498.70,-6
2497.74,-5
2496.77,-3
2495.81,-0
2494.84,0
2493.88,-2
2492.91,-3
2491.95,-4
2490.99,-2
2490.02,1
2489.06,3
2488.09,4
2487.13,4
2486.16,5
2485.20,5
2484.24,4
2483.27,4
2482.31,6
2481.34,6
2480.38,5
2479.41,3
2478.45,3
2477.49,4
2476.52,3
2475.56,2
2474.59,1
2473.63,1
2472.66,3
2471.70,5
2470.74,6
2469.77,6
2468.81,6
2467.84,6
2466.88,7
2465.92,9
2464.95,9
2463.99,10
2463.02,10
2462.06,9
2461.09,9
2460.13,13
2459.17,16
2458.20,18
2457.24,20
2456.27,23
2455.31,28
2454.34,34
2453.38,41
2452.42,47
2451.45,51
2450.49,55
2449.52,58
2448.56,63
2447.59,69
2446.63,76
2445.67,83
2444.70,95
2443.74,111
2442.77,125
2441.81,134
2440.85,141
2439.88,147
2438.92,151
2437.95,153
2436.99,153
2436.02,150
2435.06,145
2434.10,137
2433.13,128
2432.17,118
2431.20,107
2430.24,97
2429.27,85
2428.31,74
2427.35,63
2426.38,55
2425.42,49
2424.45,43
2423.49,38
2422.52,34
2421.56,32
2420.60,30
2419.63,26
2418.67,22
2417.70,18
2416.74,15
2415.78,12
2414.81,8
2413.85,5
2412.88,3
2411.92,3
2410.95,5
2409.99,5
2409.03,3
2408.06,0
2407.10,-2
2406.13,-4
2405.17,-4
2404.20,-4
2403.24,-4
2402.28,-2
2401.31,2
2400.35,3
2399.38,2
2398.42,1
2397.45,-2
2396.49,-4
2395.53,-3
2394.56,-2
2393.60,-3
2392.63,-4
2391.67,-5
2390.71,-6
2389.74,-5
2388.78,-3
2387.81,-2
2386.85,-1
2385.88,-2
2384.92,-3
2383.96,-4
2382.99,-5
2382.03,-7
2381.06,-7
2380.10,-5
2379.13,-3
2378.17,-1
2377.21,0
2376.24,0
2375.28,-2
2374.31,-5
2373.35,-7
2372.38,-8
2371.42,-7
2370.46,-6
2369.49,-6
2368.53,-8
2367.56,-7
2366.60,-5
2365.64,-3
2364.67,-2
2363.71,-2
2362.74,-4
2361.78,-4
2360.81,-3
2359.85,-4
2358.89,-6
2357.92,-9
2356.96,-10
2355.99,-8
2355.03,-7
2354.06,-5
2353.10,-5
2352.14,-8
2351.17,-9
2350.21,-9
2349.24,-9
2348.28,-8
2347.31,-6
2346.35,-5
2345.39,-5
2344.42,-7
2343.46,-8
2342.49,-8
2341.53,-8
2340.57,-8
2339.60,-7
2338.64,-6
2337.67,-5
2336.71,-4
2335.74,-5
2334.78,-7
2333.82,-7
2332.85,-7
2331.89,-5
2330.92,-1
2329.96,5
2328.99,8
2328.03,9
2327.07,6
2326.10,2
2325.14,-1
2324.17,-3
2323.21,-3
2322.24,-3
2321.28,-4
2320.32,-4
2319.35,-3
2318.39,-3
2317.42,-4
2316.46,-4
2315.49,-4
2314.53,-4
2313.57,-2
2312.60,-1
2311.64,-1
2310.67,0
2309.71,3
2308.75,3
2307.78,1
2306.82,-1
2305.85,-2
2304.89,-2
2303.92,-0
2302.96,2
2302.00,3
2301.03,3
2300.07,2
2299.10,1
2298.14,3
2297.17,4
2296.21,5
2295.25,4
2294.28,3
2293.32,2
2292.35,3
2291.39,6
2290.42,8
2289.46,8
2288.50,7
2287.53,5
2286.57,5
2285.60,8
2284.64,11
2283.68,10
2282.71,8
2281.75,8
2280.78,10
2279.82,10
2278.85,9
2277.89,9
2276.93,11
2275.96,14
2275.00,13
2274.03,12
2273.07,12
2272.10,12
2271.14,12
2270.18,13
2269.21,15
2268.25,15
2267.28,14
2266.32,13
2265.35,13
2264.39,13
2263.43,12
2262.46,11
2261.50,12
2260.53,14
2259.57,17
2258.61,17
2257.64,13
2256.68,8
2255.71,4
2254.75,4
2253.78,6
2252.82,10
2251.86,12
2250.89,14
2249.93,14
2248.96,15
2248.00,15
2247.03,13
2246.07,8
2245.11,5
2244.14,4
2243.18,4
2242.21,5
2241.25,5
2240.28,5
2239.32,5
2238.36,6
2237.39,7
2236.43,5
2235.46,2
2234.50,-1
2233.54,-0
2232.57,2
2231.61,2
2230.64,3
2229.68,4
2228.71,4
2227.75,2
2226.79,0
2225.82,0
2224.86,1
2223.89,1
2222.93,2
2221.96,3
2221.00,4
2220.04,3
2219.07,-0
2218.11,-3
2217.14,-1
2216.18,1
2215.21,2
2214.25,3
2213.29,2
2212.32,-0
2211.36,-2
2210.39,-2
2209.43,-1
2208.47,0
2207.50,-0
2206.54,-1
2205.57,-2
2204.61,-1
2203.64,2
2202.68,7
2201.72,10
2200.75,11
2199.79,11
2198.82,10
2197.86,8
2196.89,6
2195.93,5
2194.97,6
2194.00,8
2193.04,9
2192.07,8
2191.11,8
2190.14,8
2189.18,8
2188.22,9
2187.25,10
2186.29,12
2185.32,14
2184.36,14
2183.40,13
2182.43,11
2181.47,9
2180.50,7
2179.54,7
2178.57,8
2177.61,8
2176.65,9
2175.68,11
2174.72,12
2173.75,11
2172.79,10
2171.82,10
2170.86,10
2169.90,11
2168.93,12
2167.97,11
2167.00,8
2166.04,6
2165.07,8
2164.11,9
2163.15,7
2162.18,6
2161.22,8
2160.25,9
2159.29,8
2158.32,7
2157.36,8
2156.40,9
2155.43,8
2154.47,7
2153.50,6
2152.54,5
2151.58,5
2150.61,6
2149.65,6
2148.68,7
2147.72,8
2146.75,8
2145.79,8
2144.83,7
2143.86,5
2142.90,4
2141.93,2
2140.97,-0
2140.00,-2
2139.04,-3
2138.08,-1
2137.11,0
2136.15,-2
2135.18,-4
2134.22,-3
2133.25,0
2132.29,3
2131.33,5
2130.36,4
2129.40,2
2128.43,1
2127.47,2
2126.51,2
2125.54,1
2124.58,-1
2123.61,-2
2122.65,-4
2121.68,-4
2120.72,-4
2119.76,-2
2118.79,-0
2117.83,1
2116.86,0
2115.90,-1
2114.93,-3
2113.97,-4
2113.01,-5
2112.04,-4
2111.08,-2
2110.11,-0
2109.15,-1
2108.18,-4
2107.22,-5
2106.26,-5
2105.29,-5
2104.33,-3
2103.36,-2
2102.40,-2
2101.44,-1
2100.47,-0
2099.51,-1
2098.54,-2
2097.58,-5
2096.61,-5
2095.65,-5
2094.69,-5
2093.72,-5
2092.76,-4
2091.79,-2
2090.83,-0
2089.86,-1
2088.90,-1
2087.94,-2
2086.97,-2
2086.01,-2
2085.04,-2
2084.08,-1
2083.11,0
2082.15,1
2081.19,1
2080.22,-1
2079.26,-3
2078.29,-1
2077.33,4
2076.37,7
2075.40,6
2074.44,4
2073.47,3
2072.51,3
2071.54,3
2070.58,2
2069.62,2
2068.65,3
2067.69,4
2066.72,5
2065.76,6
2064.79,7
2063.83,9
2062.87,9
2061.90,8
2060.94,6
2059.97,4
2059.01,1
2058.04,0
2057.08,0
2056.12,2
2055.15,3
2054.19,3
2053.22,3
2052.26,1
2051.30,-3
2050.33,-3
2049.37,-0
2048.40,0
2047.44,0
2046.47,0
2045.51,0
2044.55,-0
2043.58,-0
2042.62,1
2041.65,3
2040.69,5
2039.72,6
2038.76,5
2037.80,0
2036.83,-7
2035.87,-8
2034.90,-6
2033.94,-5
2032.97,-5
2032.01,-6
2031.05,-9
2030.08,-11
2029.12,-10
2028.15,-8
2027.19,-8
2026.23,-8
2025.26,-7
2024.30,-6
2023.33,-7
2022.37,-8
2021.40,-8
2020.44,-7
2019.48,-7
2018.51,-9
2017.55,-11
2016.58,-11
2015.62,-11
2014.65,-10
2013.69,-8
2012.73,-8
2011.76,-8
2010.80,-7
2009.83,-4
2008.87,-2
2007.90,-4
2006.94,-8
2005.98,-9
2005.01,-9
2004.05,-10
2003.08,-11
2002.12,-11
2001.15,-10
2000.19,-10
1999.23,-12
1998.26,-13
1997.30,-11
1996.33,-8
1995.37,-9
1994.41,-11
1993.44,-11
1992.48,-9
1991.51,-7
1990.55,-5
1989.58,-5
1988.62,-5
1987.66,-4
1986.69,-2
1985.73,1
1984.76,1
1983.80,2
1982.83,2
1981.87,2
1980.91,2
1979.94,1
1978.98,-2
1978.01,-3
1977.05,-3
1976.08,-2
1975.12,-1
1974.16,-1
1973.19,-2
1972.23,-2
1971.26,1
1970.30,4
1969.34,7
1968.37,7
1967.41,6
1966.44,4
1965.48,3
1964.51,2
1963.55,5
1962.59,9
1961.62,11
1960.66,10
1959.69,6
1958.73,1
1957.76,-2
1956.80,-0
1955.84,4
1954.87,6
1953.91,8
1952.94,8
1951.98,9
1951.01,10
1950.05,11
1949.09,11
1948.12,11
1947.16,11
1946.19,10
1945.23,8
1944.27,8
1943.30,8
1942.34,9
1941.37,10
1940.41,11
1939.44,13
1938.48,13
1937.52,12
1936.55,9
1935.59,8
1934.62,7
1933.66,5
1932.69,3
1931.73,2
1930.77,2
1929.80,1
1928.84,0
1927.87,-0
1926.91,0
1925.94,0
1924.98,-0
1924.02,-2
1923.05,-1
1922.09,1
1921.12,1
1920.16,-0
1919.20,-1
1918.23,-0
1917.27,0
1916.30,-0
1915.34,-2
1914.37,-3
1913.41,-3
1912.45,-4
1911.48,-5
1910.52,-5
1909.55,-4
1908.59,-4
1907.62,-6
1906.66,-7
1905.70,-8
1904.73,-8
1903.77,-6
1902.80,-5
1901.84,-4
1900.87,-5
1899.91,-6
1898.95,-8
1897.98,-9
1897.02,-5
1896.05,1
1895.09,2
1894.13,-0
1893.16,-2
1892.20,-3
1891.23,-3
1890.27,-3
1889.30,-2
1888.34,-3
1887.38,-2
1886.41,0
1885.45,3
1884.48,5
1883.52,4
1882.55,2
1881.59,-0
1880.63,0
1879.66,2
1878.70,4
1877.73,5
1876.77,5
1875.80,4
1874.84,4
1873.88,5
1872.91,8
1871.95,9
1870.98,8
1870.02,6
1869.06,4
1868.09,3
1867.13,6
1866.16,10
1865.20,12
1864.23,13
1863.27,13
1862.31,12
1861.34,11
1860.38,6
1859.41,2
1858.45,2
1857.48,5
1856.52,9
1855.56,11
1854.59,12
1853.63,11
1852.66,8
1851.70,8
1850.73,6
1849.77,3
1848.81,1
1847.84,2
1846.88,3
1845.91,5
1844.95,6
1843.98,7
1843.02,7
1842.06,7
1841.09,8
1840.13,7
1839.16,3
1838.20,-2
1837.24,-3
1836.27,-0
1835.31,2
1834.34,1
1833.38,-1
1832.41,-2
1831.45,-1
1830.49,-3
1829.52,-5
1828.56,-7
1827.59,-7
1826.63,-6
1825.66,-5
1824.70,-4
1823.74,-3
1822.77,-5
1821.81,-6
1820.84,-8
1819.88,-10
1818.91,-11
1817.95,-10
1816.99,-8
1816.02,-8
1815.06,-9
1814.09,-10
1813.13,-10
1812.17,-8
1811.20,-6
1810.24,-5
1809.27,-6
1808.31,-6
1807.34,-5
1806.38,-4
1805.42,-3
1804.45,-3
1803.49,-3
1802.52,-4
1801.56,-6
1800.59,-6
1799.63,-3
1798.67,1
1797.70,3
1796.74,2
1795.77,0
1794.81,-4
1793.84,-5
1792.88,-1
1791.92,2
1790.95,2
1789.99,2
1789.02,4
1788.06,5
1787.10,5
1786.13,4
1785.17,4
1784.20,5
1783.24,8
1782.27,11
1781.31,13
1780.35,13
1779.38,14
1778.42,14
1777.45,16
1776.49,18
1775.52,21
1774.56,23
1773.60,27
1772.63,29
1771.67,27
1770.70,25
1769.74,24
1768.77,25
1767.81,25
1766.85,24
1765.88,23
1764.92,22
1763.95,22
1762.99,20
1762.03,16
1761.06,15
1760.10,15
1759.13,16
1758.17,15
1757.20,12
1756.24,9
1755.28,6
1754.31,6
1753.35,7
1752.38,9
1751.42,10
1750.45,10
1749.49,11
1748.53,12
1747.56,9
1746.60,5
1745.63,5
1744.67,7
1743.70,8
1742.74,8
1741.78,7
1740.81,5
1739.85,3
1738.88,4
1737.92,6
1736.96,6
1735.99,3
1735.03,2
1734.06,1
1733.10,1
1732.13,1
1731.17,-0
1730.21,0
1729.24,2
1728.28,6
1727.31,9
1726.35,9
1725.38,5
1724.42,1
1723.46,-2
1722.49,-2
1721.53,-1
1720.56,3
1719.60,5
1718.63,3
1717.67,1
1716.71,0
1715.74,-1
1714.78,-1
1713.81,-1
1712.85,-0
1711.89,-0
1710.92,-1
1709.96,-2
1708.99,-3
1708.03,-2
1707.06,0
1706.10,-1
1705.14,-3
1704.17,-3
1703.21,-3
1702.24,-4
1701.28,-6
1700.31,-6
1699.35,-3
1698.39,-0
1697.42,2
1696.46,2
1695.49,0
1694.53,-2
1693.56,-2
1692.60,0
1691.64,3
1690.67,6
1689.71,7
1688.74,6
1687.78,4
1686.81,4
1685.85,4
1684.89,5
1683.92,6
1682.96,6
1681.99,5
1681.03,4
1680.07,5
1679.10,7
1678.14,10
1677.17,12
1676.21,12
1675.24,12
1674.28,13
1673.32,14
1672.35,14
1671.39,14
1670.42,13
1669.46,11
1668.49,10
1667.53,11
1666.57,13
1665.60,15
1664.64,16
1663.67,15
1662.71,11
1661.74,8
1660.78,7
1659.82,7
1658.85,9
1657.89,10
1656.92,10
1655.96,9
1655.00,8
1654.03,9
1653.07,10
1652.10,11
1651.14,11
1650.17,10
1649.21,10
1648.25,11
1647.28,12
1646.32,14
1645.35,16
1644.39,14
1643.42,9
1642.46,7
1641.50,7
1640.53,7
1639.57,7
1638.60,7
1637.64,6
1636.67,5
1635.71,4
1634.75,4
1633.78,3
1632.82,2
1631.85,0
1630.89,1
1629.93,1
1628.96,-1
1628.00,-4
1627.03,-6
1626.07,-6
1625.10,-5
1624.14,-2
1623.18,0
1622.21,0
1621.25,-2
1620.28,-4
1619.32,-6
1618.35,-8
1617.39,-10
1616.43,-10
1615.46,-8
1614.50,-4
1613.53,-4
1612.57,-7
1611.60,-9
1610.64,-9
1609.68,-8
1608.71,-8
1607.75,-7
1606.78,-5
1605.82,-2
1604.86,0
1603.89,1
1602.93,1
1601.96,-2
1601.00,-7
1600.03,-10
1599.07,-11
1598.11,-11
1597.14,-10
1596.18,-7
1595.21,-4
1594.25,-2
1593.28,-4
1592.32,-7
1591.36,-8
1590.39,-5
1589.43,-2
1588.46,0
1587.50,1
1586.53,0
1585.57,-1
1584.61,-1
1583.64,-0
1582.68,-1
1581.71,-3
1580.75,-4
1579.79,-4
1578.82,-2
1577.86,2
1576.89,5
1575.93,5
1574.96,3
1574.00,-0
1573.04,-2
1572.07,-2
1571.11,1
1570.14,6
1569.18,10
1568.21,11
1567.25,10
1566.29,7
1565.32,5
1564.36,6
1563.39,7
1562.43,7
1561.46,3
1560.50,0
1559.54,0
1558.57,2
1557.61,4
1556.64,6
1555.68,6
1554.72,5
1553.75,4
1552.79,4
1551.82,3
1550.86,1
1549.89,-1
1548.93,-2
1547.97,-3
1547.00,-4
1546.04,-7
1545.07,-9
1544.11,-9
1543.14,-7
1542.18,-7
1541.22,-9
1540.25,-12
1539.29,-15
1538.32,-17
1537.36,-17
1536.39,-15
1535.43,-14
1534.47,-14
1533.50,-12
1532.54,-9
1531.57,-4
1530.61,2
1529.64,6
1528.68,10
1527.72,13
1526.75,13
1525.79,11
1524.82,7
1523.86,-1
1522.90,-10
1521.93,-15
1520.97,-18
1520.00,-19
1519.04,-17
1518.07,-14
1517.11,-13
1516.15,-12
1515.18,-13
1514.22,-14
1513.25,-15
1512.29,-16
1511.32,-16
1510.36,-17
1509.40,-19
1508.43,-17
1507.47,-12
1506.50,-10
1505.54,-11
1504.57,-10
1503.61,-9
1502.65,-8
1501.68,-9
1500.72,-10
1499.75,-10
1498.79,-10
1497.83,-10
1496.86,-8
1495.90,-4
1494.93,0
1493.97,2
1493.00,-2
1492.04,-6
1491.08,-9
1490.11,-12
1489.15,-11
1488.18,-8
1487.22,-5
1486.25,-4
1485.29,-4
1484.33,-3
1483.36,-2
1482.40,-2
1481.43,-3
1480.47,-3
1479.50,-1
1478.54,2
1477.58,4
1476.61,5
1475.65,5
1474.68,6
1473.72,6
1472.76,3
1471.79,-3
1470.83,-5
1469.86,-4
1468.90,-0
1467.93,6
1466.97,12
1466.01,21
1465.04,29
1464.08,34
1463.11,33
1462.15,28
1461.18,19
1460.22,6
1459.26,1
1458.29,2
1457.33,3
1456.36,5
1455.40,6
1454.43,7
1453.47,6
1452.51,3
1451.54,-0
1450.58,-1
1449.61,-0
1448.65,1
1447.69,1
1446.72,-1
1445.76,-5
1444.79,-7
1443.83,-7
1442.86,-4
1441.90,-2
1440.94,-2
1439.97,-4
1439.01,-8
1438.04,-9
1437.08,-9
1436.11,-8
1435.15,-7
1434.19,-5
1433.22,-5
1432.26,-4
1431.29,-3
1430.33,-5
1429.36,-8
1428.40,-10
1427.44,-8
1426.47,-4
1425.51,-0
1424.54,1
1423.58,0
1422.62,-0
1421.65,0
1420.69,1
1419.72,2
1418.76,3
1417.79,2
1416.83,2
1415.87,3
1414.90,6
1413.94,9
1412.97,14
1412.01,17
1411.04,18
1410.08,18
1409.12,18
1408.15,17
1407.19,17
1406.22,18
1405.26,23
1404.29,29
1403.33,35
1402.37,39
1401.40,43
1400.44,48
1399.47,55
1398.51,64
1397.55,73
1396.58,81
1395.62,89
1394.65,100
1393.69,113
1392.72,129
1391.76,150
1390.80,176
1389.83,207
1388.87,248
1387.90,302
1386.94,375
1385.97,467
1385.01,573
1384.05,691
1383.08,820
1382.12,924
1381.15,1016
1380.19,1067
1379.22,1080
1378.26,1062
1377.30,1014
1376.33,951
1375.37,887
1374.40,824
1373.44,768
1372.47,723
1371.51,685
1370.55,650
1369.58,618
1368.62,586
1367.65,557
1366.69,530
1365.73,507
1364.76,484
1363.80,463
1362.83,443
1361.87,424
1360.90,406
1359.94,391
1358.98,376
1358.01,358
1357.05,338
1356.08,318
1355.12,301
1354.15,288
1353.19,277
1352.23,267
1351.26,257
1350.30,247
1349.33,238
1348.37,229
1347.40,220
1346.44,212
1345.48,204
1344.51,195
1343.55,186
1342.58,176
1341.62,169
1340.66,168
1339.69,167
1338.73,161
1337.76,153
1336.80,146
1335.83,142
1334.87,139
1333.91,137
1332.94,135
1331.98,133
1331.01,132
1330.05,134
1329.08,138
1328.12,140
1327.16,138
1326.19,135
1325.23,134
1324.26,135
1323.30,136
1322.33,134
1321.37,132
1320.41,137
1319.44,143
1318.48,145
1317.51,146
1316.55,149
1315.59,160
1314.62,174
1313.66,189
1312.69,204
1311.73,219
1310.76,236
1309.80,258
1308.84,285
1307.87,317
1306.91,349
1305.94,380
1304.98,414
1304.01,451
1303.05,487
1302.09,514
1301.12,536
1300.16,553
1299.19,566
1298.23,572
1297.26,570
1296.30,561
1295.34,550
1294.37,538
1293.41,521
1292.44,497
1291.48,471
1290.52,446
1289.55,424
1288.59,403
1287.62,385
1286.66,368
1285.69,351
1284.73,332
1283.77,313
1282.80,296
1281.84,282
1280.87,272
1279.91,266
1278.94,258
1277.98,250
1277.02,240
1276.05,230
1275.09,220
1274.12,209
1273.16,201
1272.19,196
1271.23,192
1270.27,186
1269.30,177
1268.34,168
1267.37,161
1266.41,155
1265.45,147
1264.48,141
1263.52,139
1262.55,138
1261.59,135
1260.62,129
1259.66,123
1258.70,118
1257.73,114
1256.77,113
1255.80,113
1254.84,113
1253.87,106
1252.91,96
1251.95,89
1250.98,85
1250.02,83
1249.05,83
1248.09,85
1247.12,88
1246.16,92
1245.20,95
1244.23,94
1243.27,94
1242.30,96
1241.34,98
1240.38,98
1239.41,98
1238.45,99
1237.48,103
1236.52,110
1235.55,116
1234.59,122
1233.63,127
1232.66,133
1231.70,139
1230.73,147
1229.77,157
1228.80,165
1227.84,172
1226.88,182
1225.91,194
1224.95,209
1223.98,222
1223.02,235
1222.05,247
1221.09,260
1220.13,272
1219.16,280
1218.20,281
1217.23,283
1216.27,287
1215.30,287
1214.34,282
1213.38,273
1212.41,263
1211.45,252
1210.48,242
1209.52,234
1208.56,227
1207.59,220
1206.63,210
1205.66,201
1204.70,194
1203.73,188
1202.77,182
1201.81,175
1200.84,169
1199.88,161
1198.91,151
1197.95,141
1196.98,133
1196.02,128
1195.06,124
1194.09,118
1193.13,109
1192.16,100
1191.20,91
1190.23,85
1189.27,81
1188.31,79
1187.34,77
1186.38,74
1185.41,71
1184.45,67
1183.49,61
1182.52,57
1181.56,54
1180.59,51
1179.63,50
1178.66,49
1177.70,49
1176.74,48
1175.77,45
1174.81,39
1173.84,33
1172.88,29
1171.91,27
1170.95,26
1169.99,24
1169.02,22
1168.06,23
1167.09,26
1166.13,27
1165.16,24
1164.20,22
1163.24,20
1162.27,19
1161.31,18
1160.34,18
1159.38,17
1158.42,15
1157.45,12
1156.49,11
1155.52,11
1154.56,11
1153.59,11
1152.63,9
1151.67,5
1150.70,-1
1149.74,-6
1148.77,-7
1147.81,-6
1146.84,-3
1145.88,1
1144.92,4
1143.95,5
1142.99,3
1142.02,0
1141.06,-2
1140.09,-2
1139.13,-1
1138.17,-1
1137.20,-1
1136.24,-1
1135.27,-2
1134.31,-2
1133.35,-2
1132.38,-1
1131.42,-2
1130.45,-4
1129.49,-4
1128.52,-4
1127.56,-4
1126.60,-5
1125.63,-6
1124.67,-6
1123.70,-5
1122.74,-3
1121.77,-1
1120.81,-0
1119.85,-0
1118.88,-3
1117.92,-5
1116.95,-3
1115.99,1
1115.02,3
1114.06,2
1113.10,0
1112.13,-0
1111.17,-0
1110.20,0
1109.24,3
1108.28,6
1107.31,8
1106.35,8
1105.38,7
1104.42,5
1103.45,1
1102.49,-2
1101.53,-2
1100.56,0
1099.60,6
1098.63,9
1097.67,9
1096.70,6
1095.74,4
1094.78,3
1093.81,1
1092.85,-3
1091.88,-4
1090.92,-2
1089.95,1
1088.99,1
1088.03,0
1087.06,-1
1086.10,1
1085.13,4
1084.17,2
1083.21,-2
1082.24,-5
1081.28,-8
1080.31,-9
1079.35,-10
1078.38,-10
1077.42,-8
1076.46,-5
1075.49,-3
1074.53,-4
1073.56,-7
1072.60,-10
1071.63,-12
1070.67,-12
1069.71,-12
1068.74,-9
1067.78,-8
1066.81,-8
1065.85,-5
1064.88,-1
1063.92,2
1062.96,2
1061.99,-0
1061.03,-3
1060.06,-4
1059.10,-4
1058.13,-3
1057.17,-2
1056.21,-1
1055.24,-1
1054.28,-3
1053.31,-4
1052.35,-1
1051.39,0
1050.42,0
1049.46,-1
1048.49,-3
1047.53,-4
1046.56,-3
1045.60,-0
1044.64,3
1043.67,5
1042.71,5
1041.74,5
1040.78,6
1039.81,7
1038.85,8
1037.89,8
1036.92,7
1035.96,6
1034.99,6
1034.03,6
1033.06,5
1032.10,2
1031.14,-1
1030.17,-0
1029.21,3
1028.24,5
1027.28,5
1026.32,4
1025.35,2
1024.39,4
1023.42,7
1022.46,8
1021.49,9
1020.53,9
1019.57,8
1018.60,6
1017.64,3
1016.67,1
1015.71,-0
1014.74,0
1013.78,-1
1012.82,-3
1011.85,-7
1010.89,-10
1009.92,-11
1008.96,-10
1007.99,-7
1007.03,-4
1006.07,-3
1005.10,-5
1004.14,-6
1003.17,-5
1002.21,-4
1001.25,-4
1000.28,-5
999.32,-6
998.35,-7
997.39,-8
996.42,-6
995.46,-3
994.50,1
993.53,2
992.57,-0
991.60,-3
990.64,-5
989.67,-5
988.71,-5
987.75,-5
986.78,-5
985.82,-5
984.85,-5
983.89,-5
982.92,-7
981.96,-10
981.00,-12
980.03,-13
979.07,-12
978.10,-12
977.14,-12
976.18,-13
975.21,-13
974.25,-13
973.28,-12
972.32,-11
971.35,-9
970.39,-6
969.43,-1
968.46,2
967.50,1
966.53,-1
965.57,-3
964.60,-1
963.64,0
962.68,3
961.71,8
960.75,14
959.78,20
958.82,21
957.85,19
956.89,17
955.93,16
954.96,15
954.00,13
953.03,12
952.07,11
951.11,13
950.14,17
949.18,17
948.21,15
947.25,11
946.28,7
945.32,3
944.36,1
943.39,2
942.43,0
941.46,1
940.50,5
939.53,11
938.57,20
937.61,28
936.64,37
935.68,45
934.71,50
933.75,56
932.78,63
931.82,69
930.86,73
929.89,72
928.93,67
927.96,62
927.00,59
926.04,56
925.07,54
924.11,52
923.14,51
922.18,51
921.21,51
920.25,51
919.29,50
918.32,45
917.36,35
916.39,24
915.43,17
914.46,12
913.50,10
912.54,9
911.57,11
910.61,16
909.64,23
908.68,27
907.71,28
906.75,25
905.79,18
904.82,10
903.86,3
902.89,0
901.93,0
900.96,3
900.00,5
899.04,6
898.07,6
897.11,7
896.14,7
895.18,12
894.22,23
893.25,40
892.29,53
891.32,60
890.36,68
889.39,81
888.43,100
887.47,118
886.50,129
885.54,135
884.57,133
883.61,123
882.64,110
881.68,95
880.72,78
879.75,69
878.79,67
877.82,65
876.86,64
875.89,66
874.93,74
873.97,84
873.00,92
872.04,96
871.07,98
870.11,92
869.15,81
868.18,70
867.22,70
866.25,73
865.29,68
864.32,62
863.36,61
862.40,62
861.43,60
860.47,52
859.50,39
858.54,27
857.57,17
856.61,9
855.65,-1
854.68,-10
853.72,-15
852.75,-8
851.79,-1
850.82,1
849.86,-0
848.90,-4
847.93,-10
846.97,-19
846.00,-22
845.04,-23
844.08,-23
843.11,-20
842.15,-14
841.18,-7
840.22,1
839.25,5
838.29,4
837.33,-12
836.36,-53
835.40,-107
834.43,-135
833.47,-88
832.50,-13
831.54,6
830.58,5
829.61,5
828.65,10
827.68,12
826.72,8
825.75,-1
824.79,-3
823.83,1
822.86,6
821.90,7
820.93,3
819.97,-2
819.01,-5
818.04,-7
817.08,-10
816.11,-14
815.15,-15
814.18,-12
813.22,-6
812.26,1
811.29,7
810.33,11
809.36,10
808.40,9
807.43,11
806.47,17
805.51,24
804.54,31
803.58,34
802.61,31
801.65,24
800.68,18
799.72,23
798.76,28
797.79,30
796.83,28
795.86,22
794.90,9
793.94,-6
792.97,-7
792.01,-3
791.04,0
790.08,2
789.11,3
788.15,2
787.19,1
786.22,4
785.26,12
784.29,19
783.33,22
782.36,19
781.40,14
780.44,12
779.47,7
778.51,2
777.54,-2
776.58,-4
775.61,-7
774.65,-11
773.69,-10
772.72,-7
771.76,-4
770.79,0
769.83,7
768.87,12
767.90,11
766.94,12
765.97,17
765.01,25
764.04,31
763.08,32
762.12,31
761.15,34
760.19,42
759.22,60
758.26,89
757.29,127
756.33,180
755.37,249
754.40,315
753.44,383
752.47,440
751.51,478
750.54,496
749.58,496
748.62,478
747.65,454
746.69,437
745.72,425
744.76,420
743.79,430
742.83,453
741.87,500
740.90,573
739.94,717
738.97,950
738.01,1261
737.05,1699
736.08,2261
735.12,2776
734.15,3228
733.19,3556
732.22,3682
731.26,3554
730.30,3235
729.33,2807
728.37,2323
727.40,1903
726.44,1592
725.47,1330
724.51,1125
723.55,976
722.58,851
721.62,754
720.65,679
719.69,613
718.72,562
717.76,514
716.80,469
715.83,429
714.87,393
713.90,360
712.94,328
711.98,300
711.01,276
710.05,256
709.08,241
708.12,229
707.15,218
706.19,206
705.23,194
704.26,182
703.30,171
702.33,163
701.37,156
700.40,147
699.44,134
698.48,121
697.51,109
696.55,98
695.58,90
694.62,82
693.65,75
692.69,66
691.73,58
690.76,52
689.80,50
688.83,47
687.87,41
686.91,59
685.94,72
684.98,62
684.01,42
683.05,44
682.08,55
681.12,34
680.16,12
679.19,5
678.23,11
677.26,20
676.30,23
675.33,22
674.37,20
673.41,16
672.44,12
671.48,9
670.51,7
669.55,4
668.58,0
667.62,-3
666.66,-7
665.69,-13
664.73,-18
663.76,-17
662.80,-11
661.84,-5
660.87,-1
659.91,2
658.94,4
657.98,4
657.01,4
656.05,5
655.09,7
654.12,8
653.16,8
652.19,6
651.23,5
650.26,2
649.30,-0
648.34,0
647.37,2
646.41,4
645.44,6
644.48,8
643.51,10
642.55,11
641.59,11
640.62,9
639.66,6
638.69,2
637.73,0
636.77,2
635.80,7
634.84,12
633.87,12
632.91,8
631.94,7
630.98,10
630.02,12
629.05,7
628.09,-1
627.12,-4
626.16,-3
625.19,-1
624.23,0
623.27,-1
622.30,-2
621.34,-1
620.37,0
619.41,1
618.44,1
617.48,2
616.52,6
615.55,11
614.59,16
613.62,20
612.66,23
611.70,27
610.73,33
609.77,41
608.80,50
607.84,61
606.87,70
605.91,78
604.95,87
603.98,96
603.02,105
602.05,114
601.09,123
600.12,132
599.16,136
598.20,137
597.23,134
596.27,124
595.30,112
594.34,104
593.37,98
592.41,94
591.45,90
590.48,87
589.52,84
588.55,81
587.59,78
586.62,77
585.66,78
584.70,81
583.73,88
582.77,97
581.80,105
580.84,112
579.88,118
578.91,123
577.95,127
576.98,128
576.02,130
575.05,131
574.09,130
573.13,127
572.16,121
571.20,115
570.23,108
569.27,100
568.30,94
567.34,89
566.38,87
565.41,86
564.45,83
563.48,79
562.52,74
561.55,67
560.59,57
559.63,50
558.66,45
557.70,40
556.73,35
555.77,32
554.81,30
553.84,27
552.88,24
551.91,22
550.95,21
549.98,19
549.02,17
548.06,16
547.09,15
546.13,14
545.16,11
544.20,6
543.23,1
542.27,0
541.31,-0
540.34,-0
539.38,-1
538.41,-1
537.45,-4
536.48,-6
535.52,-7
534.56,-7
533.59,-7
532.63,-7
531.66,-8
530.70,-10
529.74,-8
528.77,-5
527.81,-2
526.84,-1
525.88,-2
524.91,-2
523.95,-2
522.99,-2
522.02,-0
521.06,3
520.09,5
519.13,5
518.16,4
517.20,3
516.24,-0
515.27,-2
514.31,-1
513.34,2
512.38,6
511.41,7
510.45,7
509.49,4
508.52,2
507.56,0
506.59,-0
505.63,1
504.67,3
503.70,4
502.74,3
501.77,2
500.81,2
499.84,2
498.88,3
497.92,2
496.95,0
495.99,-3
495.02,-4
494.06,-5
493.09,-5
492.13,-6
491.17,-5
490.20,-3
489.24,4
488.27,18
487.31,60
486.34,115
485.38,157
484.42,176
483.45,183
482.49,177
481.52,160
480.56,129
479.60,85
478.63,33
477.67,-2
476.70,-8
475.74,-8
474.77,-9
473.81,-9
472.85,-9
471.88,-9
470.92,-8
469.95,-6
468.99,-4
468.02,-3
467.06,-3
466.10,-4
465.13,-4
464.17,-4
463.20,-2
462.24,-0
461.27,1
460.31,1
459.35,1
458.38,1
457.42,2
456.45,5
455.49,9
454.53,12
453.56,13
452.60,14
451.63,17
450.67,22
449.70,22
448.74,21
447.78,19
446.81,19
445.85,16
444.88,16
443.92,17
442.95,18
441.99,18
441.03,18
440.06,17
439.10,15
438.13,13
437.17,11
436.20,10
435.24,9
434.28,8
433.31,6
432.35,5
431.38,7
430.42,10
429.45,10
428.49,10
427.53,11
426.56,14
425.60,16
424.63,14
423.67,11
422.71,11
421.74,13
420.78,17
419.81,20
418.85,21
417.88,22
416.92,23
415.96,25
414.99,26
414.03,26
413.06,27
412.10,28
411.13,30
410.17,33
409.21,38
408.24,43
407.28,49
406.31,57
405.35,64
404.38,72
403.42,80
402.46,89
401.49,99
400.53,110
399.56,125
398.60,145
397.64,168
396.67,192
395.71,222
394.74,264
393.78,322
392.81,398
391.85,514
390.89,655
389.92,805
388.96,952
387.99,1110
387.03,1209
386.06,1269
385.10,1282
384.14,1239
383.17,1140
382.21,1024
381.24,914
380.28,805
379.31,698
378.35,596
377.39,503
376.42,429
375.46,368
374.49,319
373.53,279
372.57,248
371.60,219
370.64,195
369.67,176
368.71,161
367.74,151
366.78,140
365.82,129
364.85,121
363.89,116
362.92,115
361.96,114
360.99,112
360.03,110
359.07,108
358.10,109
357.14,113
356.17,118
355.21,123
354.24,130
353.28,138
352.32,144
351.35,140
350.39,135
349.42,132
348.46,133
347.50,138
346.53,144
345.57,149
344.60,152
343.64,153
342.67,154
341.71,154
340.75,155
339.78,156
338.82,157
337.85,159
336.89,160
335.92,163
334.96,166
334.00,169
333.03,174
332.07,179
331.10,185
330.14,193
329.17,201
328.21,209
327.25,217
326.28,226
325.32,235
324.35,244
323.39,251
322.43,256
321.46,264
320.50,274
319.53,284
318.57,294
317.60,302
316.64,312
315.68,327
314.71,345
313.75,363
312.78,378
311.82,393
310.85,408
309.89,422
308.93,435
307.96,447
307.00,457
306.03,470
305.07,490
304.10,518
303.14,554
302.18,596
301.21,643
300.25,697
299.28,756
298.32,823
297.36,898
296.39,986
295.43,1074
294.46,1163
293.50,1240
292.53,1282
291.57,1296
290.61,1273
289.64,1217
288.68,1135
287.71,1037
286.75,923
285.78,811
284.82,711
283.86,623
282.89,545
281.93,486
280.96,440
280.00,402
279.03,372
278.07,347
277.11,317
276.14,289
275.18,263
274.21,238
273.25,216
272.28,197
271.32,180
270.36,163
269.39,146
268.43,130
267.46,114
266.50,101
265.54,89
264.57,77
263.61,66
262.64,58
261.68,53
260.71,51
259.75,50
258.79,48
257.82,45
256.86,42
255.89,41
254.93,38
253.96,32
253.00,26
252.04,22
251.07,19
250.11,17
249.14,16
248.18,18
247.21,19
246.25,19
245.29,18
244.32,17
243.36,14
242.39,11
241.43,7
240.47,4
239.50,1
238.54,0
237.57,-0
236.61,-1
235.64,-2
234.68,-2
233.72,1
232.75,5
231.79,22
230.82,51
229.86,88
228.89,121
227.93,146
226.97,162
226.00,167
225.04,157
224.07,135
223.11,97
222.14,55
221.18,24
220.22,15
219.25,16
218.29,14
217.32,14
216.36,16
215.40,17
214.43,18
213.47,17
212.50,18
211.54,22
210.57,31
209.61,43
208.65,53
207.68,58
206.72,58
205.75,53
204.79,46
203.82,41
202.86,38
201.90,36
200.93,33
199.97,29
199.00,25
198.04,22
197.07,20
196.11,19
195.15,16
194.18,11
193.22,8
192.25,7
191.29,9
190.33,8
189.36,4
188.40,0
187.43,-4
186.47,-6
185.50,-6
184.54,-3
183.58,-0
182.61,2
181.65,1
180.68,-0
179.72,-1
178.75,-0
177.79,1
176.83,2
175.86,1
174.90,-0
173.93,-1
172.97,-2
172.00,-2
171.04,-2
170.08,-3
169.11,-5
168.15,-7
167.18,-9
166.22,-10
165.26,-10
164.29,-9
163.33,-8
162.36,-7
161.40,-5
160.43,-3
159.47,-1
158.51,3
157.54,7
156.58,7
155.61,4
154.65,1
153.68,0
152.72,2
151.76,3
150.79,3
149.83,2
148.86,1
147.90,1
146.93,-0
145.97,-2
145.01,-4
144.04,-6
143.08,-5
142.11,-1
141.15,2
140.19,3
139.22,4
138.26,7
137.29,11
136.33,14
135.36,14
134.40,8
133.44,3
132.47,-0
131.51,1
130.54,5
129.58,14
128.61,23
127.65,28
126.69,28
125.72,26
124.76,25
123.79,25
122.83,27
121.86,30
120.90,36
119.94,40
118.97,42
118.01,44
117.04,48
116.08,50
115.11,50
114.15,49
113.19,49
112.22,51
111.26,56
110.29,62
109.33,70
108.37,79
107.40,86
106.44,89
105.47,89
104.51,88
103.54,86
102.58,85
101.62,90
100.65,99
99.69,107
98.72,115
97.76,121
96.79,130
95.83,140
94.87,151
93.90,162
92.94,174
91.97,185
91.01,193
90.04,201
89.08,209
88.12,217
87.15,225
86.19,235
85.22,248
84.26,261
83.30,271
82.33,281
81.37,292
80.40,304
79.44,316
78.47,329
77.51,344
76.55,361
