# wavenumber, intensity
2.009300000000000068e+02,2.845934124872356169e-02
2.019000000000000057e+02,2.982679239163069096e-02
2.028600000000000136e+02,3.057023192516122173e-02
2.038199999999999932e+02,3.082784453442405370e-02
2.047899999999999920e+02,3.073447001939175194e-02
2.057500000000000000e+02,3.027727926365500130e-02
2.067199999999999989e+02,2.924459890317914618e-02
2.076800000000000068e+02,2.740831341703523980e-02
2.086500000000000057e+02,2.483485476445188023e-02
2.096100000000000136e+02,2.190196915081557560e-02
2.105699999999999932e+02,1.926718760406412670e-02
2.115399999999999920e+02,1.744697732539007146e-02
2.125000000000000000e+02,1.652385959493151216e-02
2.134699999999999989e+02,1.626755953553226178e-02
2.144300000000000068e+02,1.621353328953123452e-02
2.154000000000000057e+02,1.596060634214733348e-02
2.163600000000000136e+02,1.552495269492624487e-02
2.173199999999999932e+02,1.508490976805352927e-02
2.182899999999999920e+02,1.488552920973129981e-02
2.192500000000000000e+02,1.530176276434604653e-02
2.202199999999999989e+02,1.709013312374658283e-02
2.211800000000000068e+02,2.072342639420020685e-02
2.221399999999999864e+02,2.609069682862900919e-02
2.231100000000000136e+02,3.233888580972763688e-02
2.240699999999999932e+02,3.811629279295311590e-02
2.250399999999999920e+02,4.197962101209370966e-02
2.260000000000000000e+02,4.315858717189091642e-02
2.269699999999999989e+02,4.166266139017819198e-02
2.279300000000000068e+02,3.810298381960465497e-02
2.288899999999999864e+02,3.296062515536216792e-02
2.298600000000000136e+02,2.709197478645315391e-02
2.308199999999999932e+02,2.155827867468727496e-02
2.317899999999999920e+02,1.736825256044904897e-02
2.327500000000000000e+02,1.487457718076101547e-02
2.337199999999999989e+02,1.380020572031456783e-02
2.346800000000000068e+02,1.361090215771986953e-02
2.356399999999999864e+02,1.374684280596522035e-02
2.366100000000000136e+02,1.389401775196827914e-02
2.375699999999999932e+02,1.410933238336662884e-02
2.385399999999999920e+02,1.453145124220864629e-02
2.395000000000000000e+02,1.513494191070597489e-02
2.404699999999999989e+02,1.555667970668440578e-02
2.414300000000000068e+02,1.578689813008312195e-02
2.423899999999999864e+02,1.583299262314469616e-02
2.433600000000000136e+02,1.583093206099314351e-02
2.443199999999999932e+02,1.597392942893544401e-02
2.452899999999999920e+02,1.618670364124280558e-02
2.462500000000000000e+02,1.636199255851916376e-02
2.472100000000000080e+02,1.630963169836665075e-02
2.481800000000000068e+02,1.604925285498254306e-02
2.491399999999999864e+02,1.570798989043001997e-02
2.501100000000000136e+02,1.556063146971479495e-02
2.510699999999999932e+02,1.573234968682436438e-02
2.520399999999999920e+02,1.617714884277295442e-02
2.530000000000000000e+02,1.676018913758808501e-02
2.539600000000000080e+02,1.740630239305598209e-02
2.549300000000000068e+02,1.818333191234469334e-02
2.558899999999999864e+02,1.908907599890882073e-02
2.568600000000000136e+02,1.988596312742530944e-02
2.578199999999999932e+02,2.040262791676937873e-02
2.587900000000000205e+02,2.062065232853149688e-02
2.597500000000000000e+02,2.074895760606445747e-02
2.607099999999999795e+02,2.100710652602429465e-02
2.616800000000000068e+02,2.162431545761276871e-02
2.626399999999999864e+02,2.270512264642296843e-02
2.636100000000000136e+02,2.417087389471084258e-02
2.645699999999999932e+02,2.595132661461125798e-02
2.655400000000000205e+02,2.810979369524672922e-02
2.665000000000000000e+02,3.054965453052440813e-02
2.674599999999999795e+02,3.324739613041347713e-02
2.684300000000000068e+02,3.617445289358000443e-02
2.693899999999999864e+02,3.933453665458466753e-02
2.703600000000000136e+02,4.273305286071547165e-02
2.713199999999999932e+02,4.640395844715494711e-02
2.722799999999999727e+02,5.054983772296780392e-02
2.732500000000000000e+02,5.498612924119580109e-02
2.742099999999999795e+02,5.975730444937012165e-02
2.751800000000000068e+02,6.476500678835232783e-02
2.761399999999999864e+02,6.997543457079333229e-02
2.771100000000000136e+02,7.542641181426965047e-02
2.780699999999999932e+02,8.155198323391130155e-02
2.790299999999999727e+02,8.852237102225235521e-02
2.800000000000000000e+02,9.696614542959355876e-02
2.809599999999999795e+02,1.078527868348033159e-01
2.819300000000000068e+02,1.220841581286123551e-01
2.828899999999999864e+02,1.400318238299527729e-01
2.838600000000000136e+02,1.625224927647808126e-01
2.848199999999999932e+02,1.894055463078812562e-01
2.857799999999999727e+02,2.198527372684037640e-01
2.867500000000000000e+02,2.517848596413509998e-01
2.877099999999999795e+02,2.830349500555718878e-01
2.886800000000000068e+02,3.101968287073449959e-01
2.896399999999999864e+02,3.304507433132178873e-01
2.906100000000000136e+02,3.410731811329674734e-01
2.915699999999999932e+02,3.402559000845264969e-01
2.925299999999999727e+02,3.279628262168032271e-01
2.935000000000000000e+02,3.054095359513832042e-01
2.944599999999999795e+02,2.751558261315159015e-01
2.954300000000000068e+02,2.414812444175172546e-01
2.963899999999999864e+02,2.081986352558143905e-01
2.973600000000000136e+02,1.781562883043147916e-01
2.983199999999999932e+02,1.528483792782464601e-01
2.992799999999999727e+02,1.325604795103123290e-01
3.002500000000000000e+02,1.161730404205648104e-01
3.012099999999999795e+02,1.032551787042981645e-01
3.021800000000000068e+02,9.288874456172062366e-02
3.031399999999999864e+02,8.429752705302807902e-02
3.041000000000000227e+02,7.766233345030019997e-02
3.050699999999999932e+02,7.261821843768090368e-02
3.060299999999999727e+02,6.886452341575487190e-02
3.070000000000000000e+02,6.612624801792554852e-02
3.079599999999999795e+02,6.403387417397331249e-02
3.089300000000000068e+02,6.209161087141810281e-02
3.098899999999999864e+02,6.003960146413334087e-02
3.108500000000000227e+02,5.780125231652654544e-02
3.118199999999999932e+02,5.544982629249314149e-02
3.127799999999999727e+02,5.315697104194577055e-02
3.137500000000000000e+02,5.102349886247746491e-02
3.147099999999999795e+02,4.905660760817926597e-02
3.156800000000000068e+02,4.739769982834198675e-02
3.166399999999999864e+02,4.604410808292006690e-02
3.176000000000000227e+02,4.494626597276098895e-02
3.185699999999999932e+02,4.386027915169315311e-02
3.195299999999999727e+02,4.276918326556460731e-02
3.205000000000000000e+02,4.175595122457399777e-02
3.214599999999999795e+02,4.094510590449660509e-02
3.224300000000000068e+02,4.032028982907453346e-02
3.233899999999999864e+02,3.975150410804761947e-02
3.243500000000000227e+02,3.903081543882067073e-02
3.253199999999999932e+02,3.787304766499381692e-02
3.262799999999999727e+02,3.631920032800720760e-02
3.272500000000000000e+02,3.461823449877510228e-02
3.282099999999999795e+02,3.323307098942825111e-02
3.291700000000000159e+02,3.228477488309042936e-02
3.301399999999999864e+02,3.163240937397086838e-02
3.311000000000000227e+02,3.108850564659604646e-02
3.320699999999999932e+02,3.046161489558316809e-02
3.330299999999999727e+02,2.982900820161557554e-02
3.340000000000000000e+02,2.924641953686108603e-02
3.349599999999999795e+02,2.887423402659575894e-02
3.359200000000000159e+02,2.868059763810690277e-02
3.368899999999999864e+02,2.849352399893639864e-02
3.378500000000000227e+02,2.820208147544558605e-02
3.388199999999999932e+02,2.765178436002514034e-02
3.397799999999999727e+02,2.706758676317974621e-02
3.407500000000000000e+02,2.660458127041257642e-02
3.417099999999999795e+02,2.632054830260366352e-02
3.426700000000000159e+02,2.621327204976808822e-02
3.436399999999999864e+02,2.620471930549516867e-02
3.446000000000000227e+02,2.615024142943345870e-02
3.455699999999999932e+02,2.583000748957839723e-02
3.465299999999999727e+02,2.526062900409700024e-02
3.475000000000000000e+02,2.450102958246014664e-02
3.484599999999999795e+02,2.399027832422230555e-02
3.494200000000000159e+02,2.410365158287606710e-02
3.503899999999999864e+02,2.483664717125473251e-02
3.513500000000000227e+02,2.594699378871703419e-02
3.523199999999999932e+02,2.692066585908571216e-02
3.532799999999999727e+02,2.733413317957919877e-02
3.542400000000000091e+02,2.713029277440838147e-02
3.552099999999999795e+02,2.652930018468384679e-02
3.561700000000000159e+02,2.592393242874706585e-02
3.571399999999999864e+02,2.569093365778768109e-02
3.581000000000000227e+02,2.601019377032455851e-02
3.590699999999999932e+02,2.685692956678139079e-02
3.600299999999999727e+02,2.813274214770166565e-02
3.609900000000000091e+02,2.959027937426210453e-02
3.619599999999999795e+02,3.102651942077666591e-02
3.629200000000000159e+02,3.238251045089562269e-02
3.638899999999999864e+02,3.368155375305884047e-02
3.648500000000000227e+02,3.512551385092201744e-02
3.658199999999999932e+02,3.700515582288509131e-02
3.667799999999999727e+02,3.974316306536581495e-02
3.677400000000000091e+02,4.325770585675654117e-02
3.687099999999999795e+02,4.742924336538818092e-02
3.696700000000000159e+02,5.214640644100088096e-02
3.706399999999999864e+02,5.744377301011047154e-02
3.716000000000000227e+02,6.370767024925512445e-02
3.725699999999999932e+02,7.206824593136711143e-02
3.735299999999999727e+02,8.296228277881941005e-02
3.744900000000000091e+02,9.705079783908020230e-02
3.754599999999999795e+02,1.150400558463154504e-01
3.764200000000000159e+02,1.374367575016566534e-01
3.773899999999999864e+02,1.643688411332124844e-01
3.783500000000000227e+02,1.945050989104407935e-01
3.793100000000000023e+02,2.251836938232716911e-01
3.802799999999999727e+02,2.550755491705105626e-01
3.812400000000000091e+02,2.836025079073721256e-01
3.822099999999999795e+02,3.098173606623518817e-01
3.831700000000000159e+02,3.300361751444507163e-01
3.841399999999999864e+02,3.407346138353386511e-01
3.851000000000000227e+02,3.373766173137096036e-01
3.860600000000000023e+02,3.185949461382466819e-01
3.870299999999999727e+02,2.868455363516971834e-01
3.879900000000000091e+02,2.479513672330903307e-01
3.889599999999999795e+02,2.072506637585826150e-01
3.899200000000000159e+02,1.682448432209285305e-01
3.908899999999999864e+02,1.330377819171861542e-01
3.918500000000000227e+02,1.036010991038507911e-01
3.928100000000000023e+02,8.107370699971866435e-02
3.937799999999999727e+02,6.523861147410368877e-02
3.947400000000000091e+02,5.454227568568569690e-02
3.957099999999999795e+02,4.802576199482414682e-02
3.966700000000000159e+02,4.334196308993981672e-02
3.976399999999999864e+02,3.947317296975396544e-02
3.986000000000000227e+02,3.626935166006658995e-02
3.995600000000000023e+02,3.382563785583437427e-02
4.005299999999999727e+02,3.160337802913695815e-02
4.014900000000000091e+02,2.976340893531107673e-02
4.024599999999999795e+02,2.825338382764353007e-02
4.034200000000000159e+02,2.693414419370719279e-02
4.043799999999999955e+02,2.560036771719482671e-02
4.053500000000000227e+02,2.420824628222670305e-02
4.063100000000000023e+02,2.286649571245660470e-02
4.072799999999999727e+02,2.161823256523384001e-02
4.082400000000000091e+02,2.056206744160593222e-02
4.092099999999999795e+02,1.975607714468017445e-02
4.101700000000000159e+02,1.916277637942550779e-02
4.111299999999999955e+02,1.867538286338516623e-02
4.121000000000000227e+02,1.817033343466263953e-02
4.130600000000000023e+02,1.769434357765281227e-02
4.140299999999999727e+02,1.738628953599491780e-02
4.149900000000000091e+02,1.731302667209943733e-02
4.159599999999999795e+02,1.732108544599351638e-02
4.169200000000000159e+02,1.732052090841775666e-02
4.178799999999999955e+02,1.714260689141411734e-02
4.188500000000000227e+02,1.672455270311764761e-02
4.198100000000000023e+02,1.608376021430139857e-02
4.207799999999999727e+02,1.537815881178682814e-02
4.217400000000000091e+02,1.488583970539784744e-02
4.227099999999999795e+02,1.478913441866853799e-02
4.236700000000000159e+02,1.504371263846162980e-02
4.246299999999999955e+02,1.545005267206092658e-02
4.256000000000000227e+02,1.578674288224974839e-02
4.265600000000000023e+02,1.596965305679902414e-02
4.275299999999999727e+02,1.593115159413156443e-02
4.284900000000000091e+02,1.575662480258247997e-02
4.294499999999999886e+02,1.550724032848641715e-02
4.304200000000000159e+02,1.532936865180093561e-02
4.313799999999999955e+02,1.522272750373813814e-02
4.323500000000000227e+02,1.516299942822174097e-02
4.333100000000000023e+02,1.523607881740505869e-02
4.342799999999999727e+02,1.549981665936504133e-02
4.352400000000000091e+02,1.593456704646492930e-02
4.361999999999999886e+02,1.640781889623227352e-02
4.371700000000000159e+02,1.681363673257399438e-02
4.381299999999999955e+02,1.713323556765639077e-02
4.391000000000000227e+02,1.740212481499529146e-02
4.400600000000000023e+02,1.769438591797100127e-02
4.410299999999999727e+02,1.804452623590241736e-02
4.419900000000000091e+02,1.841325395351610036e-02
4.429499999999999886e+02,1.867765512712767084e-02
4.439200000000000159e+02,1.882066660850944748e-02
4.448799999999999955e+02,1.894753231522416578e-02
4.458500000000000227e+02,1.911339345498513226e-02
4.468100000000000023e+02,1.944628714997681529e-02
4.477799999999999727e+02,1.984466720375777787e-02
4.487400000000000091e+02,2.012848846997578392e-02
4.496999999999999886e+02,2.012171401906659093e-02
4.506700000000000159e+02,1.988950560071333154e-02
4.516299999999999955e+02,1.962586655282906947e-02
4.526000000000000227e+02,1.947715324193200620e-02
4.535600000000000023e+02,1.931040295548914001e-02
4.545299999999999727e+02,1.901822653314980127e-02
4.554900000000000091e+02,1.848056094598726773e-02
4.564499999999999886e+02,1.777646968148794207e-02
4.574200000000000159e+02,1.722432370550677772e-02
4.583799999999999955e+02,1.713906441812611953e-02
4.593500000000000227e+02,1.745876204728417577e-02
4.603100000000000023e+02,1.795573858867325484e-02
4.612699999999999818e+02,1.818105964860222690e-02
4.622400000000000091e+02,1.789619398786914534e-02
4.631999999999999886e+02,1.722526930594621419e-02
4.641700000000000159e+02,1.647295241903671409e-02
4.651299999999999955e+02,1.589575508813080920e-02
4.661000000000000227e+02,1.566576247976240316e-02
4.670600000000000023e+02,1.572302070338478172e-02
4.680199999999999818e+02,1.598500847885988424e-02
4.689900000000000091e+02,1.637960613088319806e-02
4.699499999999999886e+02,1.669917673908677402e-02
4.709200000000000159e+02,1.687411282037826893e-02
4.718799999999999955e+02,1.685196883396875012e-02
4.728500000000000227e+02,1.668500684593501177e-02
4.738100000000000023e+02,1.642550303579328949e-02
4.747699999999999818e+02,1.615393223496953620e-02
4.757400000000000091e+02,1.605409376469479898e-02
4.766999999999999886e+02,1.653001305450763417e-02
4.776700000000000159e+02,1.788545366049005408e-02
4.786299999999999955e+02,1.996767994151781023e-02
4.796000000000000227e+02,2.237585610535540448e-02
4.805600000000000023e+02,2.453951693168805737e-02
4.815199999999999818e+02,2.597272258873290982e-02
4.824900000000000091e+02,2.655404104394188877e-02
4.834499999999999886e+02,2.637480036363504601e-02
4.844200000000000159e+02,2.544799902549468515e-02
4.853799999999999955e+02,2.374974297662639511e-02
4.863399999999999750e+02,2.145145405191235810e-02
4.873100000000000023e+02,1.900301224548298432e-02
4.882699999999999818e+02,1.705263371527592983e-02
4.892400000000000091e+02,1.602044732517873826e-02
4.901999999999999886e+02,1.587234089217561331e-02
4.911700000000000159e+02,1.622781609019815705e-02
4.921299999999999955e+02,1.650658474511309398e-02
4.930899999999999750e+02,1.641469214121732759e-02
4.940600000000000023e+02,1.613191526951453930e-02
4.950199999999999818e+02,1.592653649944967414e-02
4.959900000000000091e+02,1.590762449066133316e-02
4.969499999999999886e+02,1.616218859701502863e-02
4.979200000000000159e+02,1.657427280044779239e-02
4.988799999999999955e+02,1.687940536015110696e-02
4.998399999999999750e+02,1.689683545780303400e-02
5.008100000000000023e+02,1.666581256835889674e-02
5.017699999999999818e+02,1.647813205129437450e-02
5.027400000000000091e+02,1.648461011997626527e-02
5.036999999999999886e+02,1.664990672216146508e-02
5.046700000000000159e+02,1.674014805364820724e-02
5.056299999999999955e+02,1.662954102911570753e-02
5.065899999999999750e+02,1.639617530873214643e-02
5.075600000000000023e+02,1.630925063550301909e-02
5.085199999999999818e+02,1.655540313197767163e-02
5.094900000000000091e+02,1.703530241169965917e-02
5.104499999999999886e+02,1.733858611084239387e-02
5.114100000000000250e+02,1.719800214103659255e-02
5.123799999999999955e+02,1.680484405983150714e-02
5.133400000000000318e+02,1.650702226173434567e-02
5.143099999999999454e+02,1.646622030844551582e-02
5.152699999999999818e+02,1.656982706703859567e-02
5.162400000000000091e+02,1.660131415032723226e-02
5.172000000000000455e+02,1.650539921620408287e-02
5.181599999999999682e+02,1.640753662744441968e-02
5.191299999999999955e+02,1.643977172302076017e-02
5.200900000000000318e+02,1.663397264908536566e-02
5.210599999999999454e+02,1.677036492739128470e-02
5.220199999999999818e+02,1.662383919960044171e-02
5.229900000000000091e+02,1.623333444500147521e-02
5.239500000000000455e+02,1.591578205863124207e-02
5.249099999999999682e+02,1.585104371212985724e-02
5.258799999999999955e+02,1.602936701887596252e-02
5.268400000000000318e+02,1.631986394192740802e-02
5.278099999999999454e+02,1.661542758972138836e-02
5.287699999999999818e+02,1.678023022152784482e-02
5.297400000000000091e+02,1.671285266185981722e-02
5.307000000000000455e+02,1.641913787462648960e-02
5.316599999999999682e+02,1.602317121898195335e-02
5.326299999999999955e+02,1.568526725300526531e-02
5.335900000000000318e+02,1.546787794601591284e-02
5.345599999999999454e+02,1.541476907357541143e-02
5.355199999999999818e+02,1.560153221707927425e-02
5.364800000000000182e+02,1.598448628160232740e-02
5.374500000000000455e+02,1.646486541826375216e-02
5.384099999999999682e+02,1.698789536877456582e-02
5.393799999999999955e+02,1.750993737852778523e-02
5.403400000000000318e+02,1.797479173185558346e-02
5.413099999999999454e+02,1.836998214833346008e-02
5.422699999999999818e+02,1.878302606564501501e-02
5.432300000000000182e+02,1.931036061517103428e-02
5.442000000000000455e+02,2.001088117950367354e-02
5.451599999999999682e+02,2.078978778623187529e-02
5.461299999999999955e+02,2.158993511924840736e-02
5.470900000000000318e+02,2.238634239082547273e-02
5.480599999999999454e+02,2.314836932403819408e-02
5.490199999999999818e+02,2.383670999017361777e-02
5.499800000000000182e+02,2.447795410905050442e-02
5.509500000000000455e+02,2.515966145867066031e-02
5.519099999999999682e+02,2.598275724414218432e-02
5.528799999999999955e+02,2.696012703563201510e-02
5.538400000000000318e+02,2.794624715954631758e-02
5.548099999999999454e+02,2.882352443885236384e-02
5.557699999999999818e+02,2.949593103191178872e-02
5.567300000000000182e+02,3.015159908584959941e-02
5.577000000000000455e+02,3.105715969770158486e-02
5.586599999999999682e+02,3.251176132886790526e-02
5.596299999999999955e+02,3.451568624813652203e-02
5.605900000000000318e+02,3.683030442222980094e-02
5.615499999999999545e+02,3.914078735858060598e-02
5.625199999999999818e+02,4.119310726153212199e-02
5.634800000000000182e+02,4.306494450151021613e-02
5.644500000000000455e+02,4.491206910910897077e-02
5.654099999999999682e+02,4.695422733569656892e-02
5.663799999999999955e+02,4.938310791512551257e-02
5.673400000000000318e+02,5.211477822331831572e-02
5.682999999999999545e+02,5.534123748979407481e-02
5.692699999999999818e+02,5.916712275422156969e-02
5.702300000000000182e+02,6.367306409585998805e-02
5.712000000000000455e+02,6.861638092432560676e-02
5.721599999999999682e+02,7.353075108859376263e-02
5.731299999999999955e+02,7.774349984025660798e-02
5.740900000000000318e+02,8.082346160582029593e-02
5.750499999999999545e+02,8.262281222106955536e-02
5.760199999999999818e+02,8.315112059791376908e-02
5.769800000000000182e+02,8.260683580767520795e-02
5.779500000000000455e+02,8.102617293583952440e-02
5.789099999999999682e+02,7.835692637008739858e-02
5.798799999999999955e+02,7.472855868998219686e-02
5.808400000000000318e+02,7.029212603736026410e-02
5.817999999999999545e+02,6.539134711522877341e-02
5.827699999999999818e+02,6.042657785888381344e-02
5.837300000000000182e+02,5.571256208025615608e-02
5.847000000000000455e+02,5.155743850163999747e-02
