# wavenumber, intensity
2.009300000000000068e+02,9.722890370760040382e-03
2.019000000000000057e+02,9.615845386840604289e-03
2.028600000000000136e+02,9.490986050613658964e-03
2.038199999999999932e+02,9.452961752506020346e-03
2.047899999999999920e+02,9.562318714089386787e-03
2.057500000000000000e+02,9.781484162731222606e-03
2.067199999999999989e+02,9.985745089904846453e-03
2.076800000000000068e+02,1.000966339770847403e-02
2.086500000000000057e+02,9.777081789349519741e-03
2.096100000000000136e+02,9.365156770773657921e-03
2.105699999999999932e+02,8.984374467602224135e-03
2.115399999999999920e+02,8.811143374464279476e-03
2.125000000000000000e+02,8.877434003468581344e-03
2.134699999999999989e+02,9.128135161909854342e-03
2.144300000000000068e+02,9.408511577961698943e-03
2.154000000000000057e+02,9.523366280283076385e-03
2.163600000000000136e+02,9.447940621991789828e-03
2.173199999999999932e+02,9.305705916558116783e-03
2.182899999999999920e+02,9.272008737586434624e-03
2.192500000000000000e+02,9.528914190518270738e-03
2.202199999999999989e+02,1.021574714994806510e-02
2.211800000000000068e+02,1.133829383122283291e-02
2.221399999999999864e+02,1.280522902622132156e-02
2.231100000000000136e+02,1.436599372341105033e-02
2.240699999999999932e+02,1.575194280750874878e-02
2.250399999999999920e+02,1.663664426400703403e-02
2.260000000000000000e+02,1.675182088726897070e-02
2.269699999999999989e+02,1.602619854489883977e-02
2.279300000000000068e+02,1.464971059182011356e-02
2.288899999999999864e+02,1.289642881059960451e-02
2.298600000000000136e+02,1.110673651676563102e-02
2.308199999999999932e+02,9.600489339897270297e-03
2.317899999999999920e+02,8.524052607366701048e-03
2.327500000000000000e+02,7.847801231060599209e-03
2.337199999999999989e+02,7.486279834033420649e-03
2.346800000000000068e+02,7.305640378471478513e-03
2.356399999999999864e+02,7.195087710537494477e-03
2.366100000000000136e+02,7.063685435713703067e-03
2.375699999999999932e+02,6.900220671369574829e-03
2.385399999999999920e+02,6.760410824968587050e-03
2.395000000000000000e+02,6.657170361255602270e-03
2.404699999999999989e+02,6.581727979798531261e-03
2.414300000000000068e+02,6.542048088282375294e-03
2.423899999999999864e+02,6.522816447678194719e-03
2.433600000000000136e+02,6.504492038815555544e-03
2.443199999999999932e+02,6.481455878004888961e-03
2.452899999999999920e+02,6.441592031665563725e-03
2.462500000000000000e+02,6.375033832009344668e-03
2.472100000000000080e+02,6.263507039670823673e-03
2.481800000000000068e+02,6.132317985210236286e-03
2.491399999999999864e+02,5.968288814022288356e-03
2.501100000000000136e+02,5.794668907280866102e-03
2.510699999999999932e+02,5.630852956456141277e-03
2.520399999999999920e+02,5.524004469734154245e-03
2.530000000000000000e+02,5.479813504258882091e-03
2.539600000000000080e+02,5.522436672945753300e-03
2.549300000000000068e+02,5.638223691757239531e-03
2.558899999999999864e+02,5.759859637787270899e-03
2.568600000000000136e+02,5.811902129578779864e-03
2.578199999999999932e+02,5.755578507357147523e-03
2.587900000000000205e+02,5.594981765937910058e-03
2.597500000000000000e+02,5.412582197181527166e-03
2.607099999999999795e+02,5.233552346322304857e-03
2.616800000000000068e+02,5.108810072255548854e-03
2.626399999999999864e+02,5.049158540051095628e-03
2.636100000000000136e+02,5.046549726195231553e-03
2.645699999999999932e+02,5.096836285583734166e-03
2.655400000000000205e+02,5.216783191873735660e-03
2.665000000000000000e+02,5.390520160775356777e-03
2.674599999999999795e+02,5.581247866071634665e-03
2.684300000000000068e+02,5.739867093141801623e-03
2.693899999999999864e+02,5.816128909720270738e-03
2.703600000000000136e+02,5.792938059626489590e-03
2.713199999999999932e+02,5.696708783151166293e-03
2.722799999999999727e+02,5.541563793764065111e-03
2.732500000000000000e+02,5.381594171060176401e-03
2.742099999999999795e+02,5.262939129323791591e-03
2.751800000000000068e+02,5.232022176656837831e-03
2.761399999999999864e+02,5.300524444330644361e-03
2.771100000000000136e+02,5.425066040408479603e-03
2.780699999999999932e+02,5.566794870078451904e-03
2.790299999999999727e+02,5.689981889731130990e-03
2.800000000000000000e+02,5.766072293860735783e-03
2.809599999999999795e+02,5.815965858854280426e-03
2.819300000000000068e+02,5.847777500888457630e-03
2.828899999999999864e+02,5.853045298097435921e-03
2.838600000000000136e+02,5.838048799217615895e-03
2.848199999999999932e+02,5.836104731200014543e-03
2.857799999999999727e+02,5.861001344199550170e-03
2.867500000000000000e+02,5.918035700965255767e-03
2.877099999999999795e+02,5.964158192083820857e-03
2.886800000000000068e+02,5.986387460147406421e-03
2.896399999999999864e+02,5.986613222884938808e-03
2.906100000000000136e+02,5.980555256094609307e-03
2.915699999999999932e+02,5.985517855528756440e-03
2.925299999999999727e+02,5.986383279355945129e-03
2.935000000000000000e+02,5.899920331674415701e-03
2.944599999999999795e+02,5.715614322023380121e-03
2.954300000000000068e+02,5.485595538814471567e-03
2.963899999999999864e+02,5.317862186414486735e-03
2.973600000000000136e+02,5.289696194512201466e-03
2.983199999999999932e+02,5.417628412444364105e-03
2.992799999999999727e+02,5.610045157480656255e-03
3.002500000000000000e+02,5.735138618028023591e-03
3.012099999999999795e+02,5.670528667180869779e-03
3.021800000000000068e+02,5.446149771618726335e-03
3.031399999999999864e+02,5.192275392477746151e-03
3.041000000000000227e+02,5.031937860127485944e-03
3.050699999999999932e+02,5.029989611318424168e-03
3.060299999999999727e+02,5.162771547316009381e-03
3.070000000000000000e+02,5.342675183585298727e-03
3.079599999999999795e+02,5.508318140267438184e-03
3.089300000000000068e+02,5.623866853967097491e-03
3.098899999999999864e+02,5.707578840883952356e-03
3.108500000000000227e+02,5.772523255045994631e-03
3.118199999999999932e+02,5.792616138685941635e-03
3.127799999999999727e+02,5.760582914705673387e-03
3.137500000000000000e+02,5.696416127750669571e-03
3.147099999999999795e+02,5.652572167964557866e-03
3.156800000000000068e+02,5.642751488882113281e-03
3.166399999999999864e+02,5.688589686183040048e-03
3.176000000000000227e+02,5.761494327238639648e-03
3.185699999999999932e+02,5.847815128011378538e-03
3.195299999999999727e+02,5.917496378870068519e-03
3.205000000000000000e+02,5.972983842804579883e-03
3.214599999999999795e+02,6.038931646911186932e-03
3.224300000000000068e+02,6.128015950822909667e-03
3.233899999999999864e+02,6.238631330628445319e-03
3.243500000000000227e+02,6.355120722401136867e-03
3.253199999999999932e+02,6.431516324305545929e-03
3.262799999999999727e+02,6.443536099683172015e-03
3.272500000000000000e+02,6.373729425081422172e-03
3.282099999999999795e+02,6.274117888334620335e-03
3.291700000000000159e+02,6.177784092073395315e-03
3.301399999999999864e+02,6.118751317001419436e-03
3.311000000000000227e+02,6.117819000511249931e-03
3.320699999999999932e+02,6.178377764457243689e-03
3.330299999999999727e+02,6.239471669707018046e-03
3.340000000000000000e+02,6.252193818045845980e-03
3.349599999999999795e+02,6.229111668529400091e-03
3.359200000000000159e+02,6.201706580668437351e-03
3.368899999999999864e+02,6.223108052027731714e-03
3.378500000000000227e+02,6.309800943238233137e-03
3.388199999999999932e+02,6.459586158004770526e-03
3.397799999999999727e+02,6.608677361393000896e-03
3.407500000000000000e+02,6.690737935692784091e-03
3.417099999999999795e+02,6.687221890095375147e-03
3.426700000000000159e+02,6.661802678166366468e-03
3.436399999999999864e+02,6.700157258797387154e-03
3.446000000000000227e+02,6.790888794534754962e-03
3.455699999999999932e+02,6.860110158335511361e-03
3.465299999999999727e+02,6.837103263064928972e-03
3.475000000000000000e+02,6.668496125254939552e-03
3.484599999999999795e+02,6.490222997645590623e-03
3.494200000000000159e+02,6.456203897733313671e-03
3.503899999999999864e+02,6.643683128084010465e-03
3.513500000000000227e+02,6.941731749534503504e-03
3.523199999999999932e+02,7.184050421147265483e-03
3.532799999999999727e+02,7.234500031401801777e-03
3.542400000000000091e+02,7.095831541062761795e-03
3.552099999999999795e+02,6.851058744877275460e-03
3.561700000000000159e+02,6.591406511972161889e-03
3.571399999999999864e+02,6.378771459552862871e-03
3.581000000000000227e+02,6.243238562790600493e-03
3.590699999999999932e+02,6.176609289679956677e-03
3.600299999999999727e+02,6.220503418963268215e-03
3.609900000000000091e+02,6.320742074425423143e-03
3.619599999999999795e+02,6.391506150265972332e-03
3.629200000000000159e+02,6.377851685437020864e-03
3.638899999999999864e+02,6.292132918631026910e-03
3.648500000000000227e+02,6.194820817173847007e-03
3.658199999999999932e+02,6.166470870448404612e-03
3.667799999999999727e+02,6.207597315801298768e-03
3.677400000000000091e+02,6.302229529948191571e-03
3.687099999999999795e+02,6.372960159457242112e-03
3.696700000000000159e+02,6.391025359250883213e-03
3.706399999999999864e+02,6.388282760069069650e-03
3.716000000000000227e+02,6.408208412051564183e-03
3.725699999999999932e+02,6.438218132976950524e-03
3.735299999999999727e+02,6.449874179499662935e-03
3.744900000000000091e+02,6.412957791122524641e-03
3.754599999999999795e+02,6.339237895736976949e-03
3.764200000000000159e+02,6.276985911259511108e-03
3.773899999999999864e+02,6.302793936792016466e-03
3.783500000000000227e+02,6.421603667811502832e-03
3.793100000000000023e+02,6.598221202012331810e-03
3.802799999999999727e+02,6.748090032607610179e-03
3.812400000000000091e+02,6.856138406471640537e-03
3.822099999999999795e+02,6.947706100496157944e-03
3.831700000000000159e+02,7.031622946193356698e-03
3.841399999999999864e+02,7.051385547309880868e-03
3.851000000000000227e+02,6.964634125019293458e-03
3.860600000000000023e+02,6.783810714634188124e-03
3.870299999999999727e+02,6.613915893061958311e-03
3.879900000000000091e+02,6.551944021610660827e-03
3.889599999999999795e+02,6.639422901611060843e-03
3.899200000000000159e+02,6.829837047549655246e-03
3.908899999999999864e+02,6.997879778515886558e-03
3.918500000000000227e+02,7.016208368169992229e-03
3.928100000000000023e+02,6.885082025580966866e-03
3.937799999999999727e+02,6.714990706811259369e-03
3.947400000000000091e+02,6.672400984455827827e-03
3.957099999999999795e+02,6.761577265779111778e-03
3.966700000000000159e+02,6.918377848574746788e-03
3.976399999999999864e+02,7.027404527634758050e-03
3.986000000000000227e+02,7.034616392861358508e-03
3.995600000000000023e+02,6.958939887083892377e-03
4.005299999999999727e+02,6.873129142866281696e-03
4.014900000000000091e+02,6.844060100013896371e-03
4.024599999999999795e+02,6.860883604751125825e-03
4.034200000000000159e+02,6.852413321302429881e-03
4.043799999999999955e+02,6.779073877937522204e-03
4.053500000000000227e+02,6.648792055218477950e-03
4.063100000000000023e+02,6.520976899446493356e-03
4.072799999999999727e+02,6.389536997499763692e-03
4.082400000000000091e+02,6.282094838393910072e-03
4.092099999999999795e+02,6.176588385722784659e-03
4.101700000000000159e+02,6.091902274401409315e-03
4.111299999999999955e+02,6.063707016959102303e-03
4.121000000000000227e+02,6.123981487087468145e-03
4.130600000000000023e+02,6.265902633163462909e-03
4.140299999999999727e+02,6.471618475756692884e-03
4.149900000000000091e+02,6.667613978261949063e-03
4.159599999999999795e+02,6.799258738989037362e-03
4.169200000000000159e+02,6.820589136893946865e-03
4.178799999999999955e+02,6.749812518679110945e-03
4.188500000000000227e+02,6.605955666168373229e-03
4.198100000000000023e+02,6.424212481667402469e-03
4.207799999999999727e+02,6.207818897747422772e-03
4.217400000000000091e+02,6.038730968922286987e-03
4.227099999999999795e+02,5.992922037161392372e-03
4.236700000000000159e+02,6.101033122896936181e-03
4.246299999999999955e+02,6.333560380967249298e-03
4.256000000000000227e+02,6.598773066481824004e-03
4.265600000000000023e+02,6.761284610378637608e-03
4.275299999999999727e+02,6.738290257482360164e-03
4.284900000000000091e+02,6.567170464019486675e-03
4.294499999999999886e+02,6.350095411095468476e-03
4.304200000000000159e+02,6.211280593056156714e-03
4.313799999999999955e+02,6.183561945837501815e-03
4.323500000000000227e+02,6.234358561781159526e-03
4.333100000000000023e+02,6.321147611194712079e-03
4.342799999999999727e+02,6.402263326630026029e-03
4.352400000000000091e+02,6.486351584776096912e-03
4.361999999999999886e+02,6.605993293291287198e-03
4.371700000000000159e+02,6.748073309441845677e-03
4.381299999999999955e+02,6.871782928023989143e-03
4.391000000000000227e+02,6.953208022025538296e-03
4.400600000000000023e+02,6.983694353174614046e-03
4.410299999999999727e+02,6.975081922817083328e-03
4.419900000000000091e+02,6.993017518076198938e-03
4.429499999999999886e+02,7.053726790513878929e-03
4.439200000000000159e+02,7.158426350437915517e-03
4.448799999999999955e+02,7.266863537905464236e-03
4.458500000000000227e+02,7.361972362276029101e-03
4.468100000000000023e+02,7.424721860934339890e-03
4.477799999999999727e+02,7.454263333218943792e-03
4.487400000000000091e+02,7.447870903113765727e-03
4.496999999999999886e+02,7.414549995371296116e-03
4.506700000000000159e+02,7.381224906837392102e-03
4.516299999999999955e+02,7.333371568064453970e-03
4.526000000000000227e+02,7.246887716425724768e-03
4.535600000000000023e+02,7.110334706553149593e-03
4.545299999999999727e+02,6.925071295663329414e-03
4.554900000000000091e+02,6.706813078763025453e-03
4.564499999999999886e+02,6.502042095034254315e-03
4.574200000000000159e+02,6.377274736218877145e-03
4.583799999999999955e+02,6.350772699308006655e-03
4.593500000000000227e+02,6.388562873095225865e-03
4.603100000000000023e+02,6.408066265142743287e-03
4.612699999999999818e+02,6.348556879847117029e-03
4.622400000000000091e+02,6.236206471595766125e-03
4.631999999999999886e+02,6.101727134275283099e-03
4.641700000000000159e+02,5.974233899443837786e-03
4.651299999999999955e+02,5.877778860230983837e-03
4.661000000000000227e+02,5.819360661500062176e-03
4.670600000000000023e+02,5.787791505369149769e-03
4.680199999999999818e+02,5.768129243247088582e-03
4.689900000000000091e+02,5.781328001809564292e-03
4.699499999999999886e+02,5.830305973478696127e-03
4.709200000000000159e+02,5.893828918552604032e-03
4.718799999999999955e+02,5.921259091162188806e-03
4.728500000000000227e+02,5.908043609433974615e-03
4.738100000000000023e+02,5.900204625492058361e-03
4.747699999999999818e+02,5.934006324249626631e-03
4.757400000000000091e+02,6.045177749316107095e-03
4.766999999999999886e+02,6.249718789515897564e-03
4.776700000000000159e+02,6.534890573344459379e-03
4.786299999999999955e+02,6.814736028883961252e-03
4.796000000000000227e+02,7.007119327588785980e-03
4.805600000000000023e+02,7.095363292421952468e-03
4.815199999999999818e+02,7.115840808873973022e-03
4.824900000000000091e+02,7.102458095488315033e-03
4.834499999999999886e+02,7.070579560791152678e-03
4.844200000000000159e+02,7.047112778462602013e-03
4.853799999999999955e+02,7.006755598733863631e-03
4.863399999999999750e+02,6.890057167389396393e-03
4.873100000000000023e+02,6.671594091708752013e-03
4.882699999999999818e+02,6.385928974490786593e-03
4.892400000000000091e+02,6.139287364533556335e-03
4.901999999999999886e+02,6.009891869598860646e-03
4.911700000000000159e+02,6.027823284066521035e-03
4.921299999999999955e+02,6.151098100339333873e-03
4.930899999999999750e+02,6.287040714662321325e-03
4.940600000000000023e+02,6.342469647516749305e-03
4.950199999999999818e+02,6.277847154295269731e-03
4.959900000000000091e+02,6.164685672505393864e-03
4.969499999999999886e+02,6.113692559364241122e-03
4.979200000000000159e+02,6.192780590953207535e-03
4.988799999999999955e+02,6.390686715144552540e-03
4.998399999999999750e+02,6.593948433165046016e-03
5.008100000000000023e+02,6.731228900747464154e-03
5.017699999999999818e+02,6.803811620862524473e-03
5.027400000000000091e+02,6.826668007641440578e-03
5.036999999999999886e+02,6.814593881975143826e-03
5.046700000000000159e+02,6.775541109174341818e-03
5.056299999999999955e+02,6.675783244727320244e-03
5.065899999999999750e+02,6.519860628133199686e-03
5.075600000000000023e+02,6.412982875871144073e-03
5.085199999999999818e+02,6.427519487693007100e-03
5.094900000000000091e+02,6.566075096663262674e-03
5.104499999999999886e+02,6.719489238396011629e-03
5.114100000000000250e+02,6.755561106903199171e-03
5.123799999999999955e+02,6.676581775891553272e-03
5.133400000000000318e+02,6.580406849704876354e-03
5.143099999999999454e+02,6.527749781572306231e-03
5.152699999999999818e+02,6.554134756322954440e-03
5.162400000000000091e+02,6.637269794021711557e-03
5.172000000000000455e+02,6.753926417451827820e-03
5.181599999999999682e+02,6.889568014791408977e-03
5.191299999999999955e+02,6.982247799337831622e-03
5.200900000000000318e+02,6.986788138837007715e-03
5.210599999999999454e+02,6.888033664334549180e-03
5.220199999999999818e+02,6.712799972098954480e-03
5.229900000000000091e+02,6.553942439916931977e-03
5.239500000000000455e+02,6.468884238157747261e-03
5.249099999999999682e+02,6.467237006332085709e-03
5.258799999999999955e+02,6.490812489237975970e-03
5.268400000000000318e+02,6.491966387674239988e-03
5.278099999999999454e+02,6.480636442883508201e-03
5.287699999999999818e+02,6.533803567571190053e-03
5.297400000000000091e+02,6.645476687609950736e-03
5.307000000000000455e+02,6.755046869556574109e-03
5.316599999999999682e+02,6.798748682433880530e-03
5.326299999999999955e+02,6.713615226428899969e-03
5.335900000000000318e+02,6.538285375990289701e-03
5.345599999999999454e+02,6.387237562210160841e-03
5.355199999999999818e+02,6.357704451508401459e-03
5.364800000000000182e+02,6.481133957064314985e-03
5.374500000000000455e+02,6.673726295340914536e-03
5.384099999999999682e+02,6.836405070895158059e-03
5.393799999999999955e+02,6.903556942935262786e-03
5.403400000000000318e+02,6.863877051419118094e-03
5.413099999999999454e+02,6.770352747002676176e-03
5.422699999999999818e+02,6.692631834213150915e-03
5.432300000000000182e+02,6.691084941381946274e-03
5.442000000000000455e+02,6.785800771357547966e-03
5.451599999999999682e+02,6.963442599460092919e-03
5.461299999999999955e+02,7.193193812017112908e-03
5.470900000000000318e+02,7.401464118177567518e-03
5.480599999999999454e+02,7.515808763943768178e-03
5.490199999999999818e+02,7.494695767193536133e-03
5.499800000000000182e+02,7.395276546852774975e-03
5.509500000000000455e+02,7.288670546034046668e-03
5.519099999999999682e+02,7.220874832112843429e-03
5.528799999999999955e+02,7.192633585964738896e-03
5.538400000000000318e+02,7.150135841020934489e-03
5.548099999999999454e+02,7.049023400148732472e-03
5.557699999999999818e+02,6.894844173583291637e-03
5.567300000000000182e+02,6.758755231560071436e-03
5.577000000000000455e+02,6.718297712836857061e-03
5.586599999999999682e+02,6.791670602533234763e-03
5.596299999999999955e+02,6.940105421666049532e-03
5.605900000000000318e+02,7.060641819548510098e-03
5.615499999999999545e+02,7.120912108885462354e-03
5.625199999999999818e+02,7.101609394826875234e-03
5.634800000000000182e+02,7.034950856176188858e-03
5.644500000000000455e+02,6.949666891679496042e-03
5.654099999999999682e+02,6.867915695945976673e-03
5.663799999999999955e+02,6.778237719650387350e-03
5.673400000000000318e+02,6.692318274855476971e-03
5.682999999999999545e+02,6.647420755627575506e-03
5.692699999999999818e+02,6.685896579210241601e-03
5.702300000000000182e+02,6.813761904479441640e-03
5.712000000000000455e+02,6.989376048735682426e-03
5.721599999999999682e+02,7.118457984312681619e-03
5.731299999999999955e+02,7.129119002473718880e-03
5.740900000000000318e+02,6.987837517487395164e-03
5.750499999999999545e+02,6.762860768749928177e-03
5.760199999999999818e+02,6.543770574353895142e-03
5.769800000000000182e+02,6.393604907566685647e-03
5.779500000000000455e+02,6.324308289520089166e-03
5.789099999999999682e+02,6.353548744821320600e-03
5.798799999999999955e+02,6.426833837897563684e-03
5.808400000000000318e+02,6.491606839610737298e-03
5.817999999999999545e+02,6.495503337228805338e-03
5.827699999999999818e+02,6.412142536792554866e-03
5.837300000000000182e+02,6.226490312299224998e-03
5.847000000000000455e+02,5.969777175773419153e-03
