# wavenumber, intensity
2.009300000000000068e+02,1.037547993145009929e-02
2.019000000000000057e+02,9.877275583733443123e-03
2.028600000000000136e+02,9.472745445206333034e-03
2.038199999999999932e+02,9.448371755579502290e-03
2.047899999999999920e+02,9.934277236203383279e-03
2.057500000000000000e+02,1.075528262578388100e-02
2.067199999999999989e+02,1.153428555651081315e-02
2.076800000000000068e+02,1.185636729742298341e-02
2.086500000000000057e+02,1.164630783587923546e-02
2.096100000000000136e+02,1.112562828137557414e-02
2.105699999999999932e+02,1.075484632848546646e-02
2.115399999999999920e+02,1.082682359093424529e-02
2.125000000000000000e+02,1.136351643547807780e-02
2.134699999999999989e+02,1.226615658717082440e-02
2.144300000000000068e+02,1.346866269300403887e-02
2.154000000000000057e+02,1.385274581759189487e-02
2.163600000000000136e+02,1.339589537869065490e-02
2.173199999999999932e+02,1.284059504395285850e-02
2.182899999999999920e+02,1.327627916796306554e-02
2.192500000000000000e+02,1.547475767193094882e-02
2.202199999999999989e+02,1.953963347654405838e-02
2.211800000000000068e+02,2.472422502662811189e-02
2.221399999999999864e+02,2.999337570990703167e-02
2.231100000000000136e+02,3.445232230970016879e-02
2.240699999999999932e+02,3.797043505644509542e-02
2.250399999999999920e+02,4.016957390227046676e-02
2.260000000000000000e+02,4.033669935126939221e-02
2.269699999999999989e+02,3.806758785220518138e-02
2.279300000000000068e+02,3.503723190164840379e-02
2.288899999999999864e+02,3.305146601847189225e-02
2.298600000000000136e+02,3.323576035576050747e-02
2.308199999999999932e+02,3.557377145254574796e-02
2.317899999999999920e+02,3.870850858383622500e-02
2.327500000000000000e+02,4.070167972926995448e-02
2.337199999999999989e+02,4.061339438130907170e-02
2.346800000000000068e+02,3.882880872005930323e-02
2.356399999999999864e+02,3.623694334640639031e-02
2.366100000000000136e+02,3.317741443593830164e-02
2.375699999999999932e+02,2.998928394875544079e-02
2.385399999999999920e+02,2.721246389595612450e-02
2.395000000000000000e+02,2.524608376302004201e-02
2.404699999999999989e+02,2.427501568636149937e-02
2.414300000000000068e+02,2.420099843924625529e-02
2.423899999999999864e+02,2.484550388381800284e-02
2.433600000000000136e+02,2.586660464798806042e-02
2.443199999999999932e+02,2.701641311524273503e-02
2.452899999999999920e+02,2.834400683576426827e-02
2.462500000000000000e+02,2.974466266607172366e-02
2.472100000000000080e+02,3.101054979838974851e-02
2.481800000000000068e+02,3.231474855025164017e-02
2.491399999999999864e+02,3.341967735484580732e-02
2.501100000000000136e+02,3.453514804551949258e-02
2.510699999999999932e+02,3.620819489197498603e-02
2.520399999999999920e+02,3.886741513507523116e-02
2.530000000000000000e+02,4.236360689052071776e-02
2.539600000000000080e+02,4.648675786404316002e-02
2.549300000000000068e+02,5.050855815428462181e-02
2.558899999999999864e+02,5.337288529499892992e-02
2.568600000000000136e+02,5.430055947817589990e-02
2.578199999999999932e+02,5.301828171761355929e-02
2.587900000000000205e+02,4.972519225057208531e-02
2.597500000000000000e+02,4.501190790933764369e-02
2.607099999999999795e+02,3.940882470717155944e-02
2.616800000000000068e+02,3.400003530470546709e-02
2.626399999999999864e+02,2.946465413492652466e-02
2.636100000000000136e+02,2.601600699320853402e-02
2.645699999999999932e+02,2.349695610114500843e-02
2.655400000000000205e+02,2.181090287846395095e-02
2.665000000000000000e+02,2.048577364808855730e-02
2.674599999999999795e+02,1.934557551322177438e-02
2.684300000000000068e+02,1.841704052726656632e-02
2.693899999999999864e+02,1.752013119954991954e-02
2.703600000000000136e+02,1.648557597003691422e-02
2.713199999999999932e+02,1.547580714381146041e-02
2.722799999999999727e+02,1.475663590208609564e-02
2.732500000000000000e+02,1.447047204148509819e-02
2.742099999999999795e+02,1.473087077783125608e-02
2.751800000000000068e+02,1.521735405758044626e-02
2.761399999999999864e+02,1.574743169173226445e-02
2.771100000000000136e+02,1.626649576704929448e-02
2.780699999999999932e+02,1.680969769561537971e-02
2.790299999999999727e+02,1.757890162485219177e-02
2.800000000000000000e+02,1.863365624010816443e-02
2.809599999999999795e+02,1.970323317169742072e-02
2.819300000000000068e+02,2.055984985429820666e-02
2.828899999999999864e+02,2.098363603305781339e-02
2.838600000000000136e+02,2.093036059535407015e-02
2.848199999999999932e+02,2.059232452349618603e-02
2.857799999999999727e+02,2.020629574879316201e-02
2.867500000000000000e+02,1.978722629758588800e-02
2.877099999999999795e+02,1.946746754499335819e-02
2.886800000000000068e+02,1.926644061671233324e-02
2.896399999999999864e+02,1.921100727615336623e-02
2.906100000000000136e+02,1.939113910137746713e-02
2.915699999999999932e+02,1.979108222235983344e-02
2.925299999999999727e+02,1.985840171635079587e-02
2.935000000000000000e+02,1.979875869645138925e-02
2.944599999999999795e+02,1.932784061762501601e-02
2.954300000000000068e+02,1.837260895372356748e-02
2.963899999999999864e+02,1.718091594580403031e-02
2.973600000000000136e+02,1.607094024272891566e-02
2.983199999999999932e+02,1.535330193745805712e-02
2.992799999999999727e+02,1.501771856392732085e-02
3.002500000000000000e+02,1.496055182599281483e-02
3.012099999999999795e+02,1.497029186838843597e-02
3.021800000000000068e+02,1.479939303734813250e-02
3.031399999999999864e+02,1.431625863416126701e-02
3.041000000000000227e+02,1.372105478433043035e-02
3.050699999999999932e+02,1.383451566560211198e-02
3.060299999999999727e+02,1.459666808714814475e-02
3.070000000000000000e+02,1.602405597085847580e-02
3.079599999999999795e+02,1.783152955255593378e-02
3.089300000000000068e+02,1.970412934993243798e-02
3.098899999999999864e+02,2.150167422013219559e-02
3.108500000000000227e+02,2.312122158432521751e-02
3.118199999999999932e+02,2.472072285642073694e-02
3.127799999999999727e+02,2.637195483794663869e-02
3.137500000000000000e+02,2.802995532351017227e-02
3.147099999999999795e+02,2.986309969491122637e-02
3.156800000000000068e+02,3.198067452953768514e-02
3.166399999999999864e+02,3.422198091968108730e-02
3.176000000000000227e+02,3.622542273935967089e-02
3.185699999999999932e+02,3.750364411422710958e-02
3.195299999999999727e+02,3.783269482009787160e-02
3.205000000000000000e+02,3.732745075650931166e-02
3.214599999999999795e+02,3.635962543004298692e-02
3.224300000000000068e+02,3.524724419591604430e-02
3.233899999999999864e+02,3.412669123130476767e-02
3.243500000000000227e+02,3.277244800011250986e-02
3.253199999999999932e+02,3.104598421412672199e-02
3.262799999999999727e+02,2.906827214324618491e-02
3.272500000000000000e+02,2.706609204818780784e-02
3.282099999999999795e+02,2.515250388838142018e-02
3.291700000000000159e+02,2.340656001760441779e-02
3.301399999999999864e+02,2.186719702180135380e-02
3.311000000000000227e+02,2.067023307084204717e-02
3.320699999999999932e+02,1.986781158781770681e-02
3.330299999999999727e+02,1.946924810964429861e-02
3.340000000000000000e+02,1.926546189574514234e-02
3.349599999999999795e+02,1.906210018732572287e-02
3.359200000000000159e+02,1.873898076635216806e-02
3.368899999999999864e+02,1.836270382586361466e-02
3.378500000000000227e+02,1.804339316238852756e-02
3.388199999999999932e+02,1.791611226938839493e-02
3.397799999999999727e+02,1.780288722449428762e-02
3.407500000000000000e+02,1.759321689297357535e-02
3.417099999999999795e+02,1.721380332866276688e-02
3.426700000000000159e+02,1.677153936971689796e-02
3.436399999999999864e+02,1.647498691668185591e-02
3.446000000000000227e+02,1.636941476224136258e-02
3.455699999999999932e+02,1.630817984679299934e-02
3.465299999999999727e+02,1.604596517033919645e-02
3.475000000000000000e+02,1.547588968654369131e-02
3.484599999999999795e+02,1.491272420861226508e-02
3.494200000000000159e+02,1.482371955969932591e-02
3.503899999999999864e+02,1.543505461775897085e-02
3.513500000000000227e+02,1.649630652521827043e-02
3.523199999999999932e+02,1.733492889220693278e-02
3.532799999999999727e+02,1.739275597199887308e-02
3.542400000000000091e+02,1.664498956948748734e-02
3.552099999999999795e+02,1.547252901816262120e-02
3.561700000000000159e+02,1.436462867521046127e-02
3.571399999999999864e+02,1.368262524659758644e-02
3.581000000000000227e+02,1.353796321256706472e-02
3.590699999999999932e+02,1.387769730634374338e-02
3.600299999999999727e+02,1.446542514300399977e-02
3.609900000000000091e+02,1.491916254172100109e-02
3.619599999999999795e+02,1.496595247904037619e-02
3.629200000000000159e+02,1.458152739170525541e-02
3.638899999999999864e+02,1.392920397121555180e-02
3.648500000000000227e+02,1.342839363152605915e-02
3.658199999999999932e+02,1.330299942954681590e-02
3.667799999999999727e+02,1.349704560105039614e-02
3.677400000000000091e+02,1.381344368526193044e-02
3.687099999999999795e+02,1.394903781057309396e-02
3.696700000000000159e+02,1.392307222539743324e-02
3.706399999999999864e+02,1.387861706821653766e-02
3.716000000000000227e+02,1.391578488132900505e-02
3.725699999999999932e+02,1.398046300789057908e-02
3.735299999999999727e+02,1.406297036460004042e-02
3.744900000000000091e+02,1.416528797702934148e-02
3.754599999999999795e+02,1.429427868376717363e-02
3.764200000000000159e+02,1.442423631965324485e-02
3.773899999999999864e+02,1.460551195130885965e-02
3.783500000000000227e+02,1.494030527297450853e-02
3.793100000000000023e+02,1.547774100210791079e-02
3.802799999999999727e+02,1.625462140543620926e-02
3.812400000000000091e+02,1.739968956150074464e-02
3.822099999999999795e+02,1.888458614589305640e-02
3.831700000000000159e+02,2.041731034766623362e-02
3.841399999999999864e+02,2.164492123589696962e-02
3.851000000000000227e+02,2.251871859860727493e-02
3.860600000000000023e+02,2.321451845531086189e-02
3.870299999999999727e+02,2.432122782455603538e-02
3.879900000000000091e+02,2.703444280631175575e-02
3.889599999999999795e+02,3.144319163312894044e-02
3.899200000000000159e+02,3.791114579111244665e-02
3.908899999999999864e+02,4.667450720426481042e-02
3.918500000000000227e+02,5.767437573727605266e-02
3.928100000000000023e+02,7.047897035818542766e-02
3.937799999999999727e+02,8.458740997639024872e-02
3.947400000000000091e+02,9.895182639886093701e-02
3.957099999999999795e+02,1.117477304492551504e-01
3.966700000000000159e+02,1.208376309108566415e-01
3.976399999999999864e+02,1.245259939386038767e-01
3.986000000000000227e+02,1.222899820751381095e-01
3.995600000000000023e+02,1.146676442241744698e-01
4.005299999999999727e+02,1.026046724681394795e-01
4.014900000000000091e+02,8.857087506345019678e-02
4.024599999999999795e+02,7.453601639506172993e-02
4.034200000000000159e+02,6.183412851660447657e-02
4.043799999999999955e+02,5.101432105790393301e-02
4.053500000000000227e+02,4.236883066628473887e-02
4.063100000000000023e+02,3.565782353752887379e-02
4.072799999999999727e+02,3.047863264049236257e-02
4.082400000000000091e+02,2.651378683544551237e-02
4.092099999999999795e+02,2.350680226991055596e-02
4.101700000000000159e+02,2.119818817759509116e-02
4.111299999999999955e+02,1.936673003629401507e-02
4.121000000000000227e+02,1.777293600453688782e-02
4.130600000000000023e+02,1.633919233044979491e-02
4.140299999999999727e+02,1.522710589179498801e-02
4.149900000000000091e+02,1.457607957138215213e-02
4.159599999999999795e+02,1.432869900308034183e-02
4.169200000000000159e+02,1.436869685272423695e-02
4.178799999999999955e+02,1.439989800548303889e-02
4.188500000000000227e+02,1.412697635748537753e-02
4.198100000000000023e+02,1.344323953149708165e-02
4.207799999999999727e+02,1.238835520623341249e-02
4.217400000000000091e+02,1.119984598941171569e-02
4.227099999999999795e+02,1.019131530416871566e-02
4.236700000000000159e+02,9.582621613538176361e-03
4.246299999999999955e+02,9.458265091620461640e-03
4.256000000000000227e+02,9.690115834456098851e-03
4.265600000000000023e+02,9.935409250815980045e-03
4.275299999999999727e+02,9.966315608102798915e-03
4.284900000000000091e+02,9.665954397569348142e-03
4.294499999999999886e+02,9.148010545046056721e-03
4.304200000000000159e+02,8.673000705067964236e-03
4.313799999999999955e+02,8.575741782938507002e-03
4.323500000000000227e+02,8.798890163440044668e-03
4.333100000000000023e+02,9.256931576048538224e-03
4.342799999999999727e+02,9.772611399346754074e-03
4.352400000000000091e+02,1.027603952282775575e-02
4.361999999999999886e+02,1.076436232632232981e-02
4.371700000000000159e+02,1.136010859982158373e-02
4.381299999999999955e+02,1.214070342609734413e-02
4.391000000000000227e+02,1.311659435667809556e-02
4.400600000000000023e+02,1.417047637733693730e-02
4.410299999999999727e+02,1.525847213001812336e-02
4.419900000000000091e+02,1.629242597676830093e-02
4.429499999999999886e+02,1.739967776968197322e-02
4.439200000000000159e+02,1.874775387959958656e-02
4.448799999999999955e+02,2.051364950792302494e-02
4.458500000000000227e+02,2.269123290883424959e-02
4.468100000000000023e+02,2.517612290159984556e-02
4.477799999999999727e+02,2.775768222555085110e-02
4.487400000000000091e+02,3.027055420452080120e-02
4.496999999999999886e+02,3.264833910639145659e-02
4.506700000000000159e+02,3.488754655277409578e-02
4.516299999999999955e+02,3.696107894388051679e-02
4.526000000000000227e+02,3.868009030033365409e-02
4.535600000000000023e+02,3.967975353777827840e-02
4.545299999999999727e+02,3.986138292400036309e-02
4.554900000000000091e+02,3.928523465348109783e-02
4.564499999999999886e+02,3.815207623448618746e-02
4.574200000000000159e+02,3.680764379660268065e-02
4.583799999999999955e+02,3.543546520889248597e-02
4.593500000000000227e+02,3.399534216079076049e-02
4.603100000000000023e+02,3.229561042820785349e-02
4.612699999999999818e+02,3.016958085944377449e-02
4.622400000000000091e+02,2.742659153501377303e-02
4.631999999999999886e+02,2.422794274538920753e-02
4.641700000000000159e+02,2.100315149330567524e-02
4.651299999999999955e+02,1.814859977044361652e-02
4.661000000000000227e+02,1.589984095076734869e-02
4.670600000000000023e+02,1.417535819035346464e-02
4.680199999999999818e+02,1.271972890042346108e-02
4.689900000000000091e+02,1.128211750974346568e-02
4.699499999999999886e+02,9.755584012882808839e-03
4.709200000000000159e+02,8.269991711176476190e-03
4.718799999999999955e+02,7.035600527089300518e-03
4.728500000000000227e+02,6.364940828239839046e-03
4.738100000000000023e+02,6.203145281375409270e-03
4.747699999999999818e+02,6.495723891447567795e-03
4.757400000000000091e+02,7.222819235460919973e-03
4.766999999999999886e+02,8.520721156040451591e-03
4.776700000000000159e+02,1.050750113564030003e-02
4.786299999999999955e+02,1.296794668786581395e-02
4.796000000000000227e+02,1.578116808555029768e-02
4.805600000000000023e+02,1.850669372621778844e-02
4.815199999999999818e+02,2.053233954084911564e-02
4.824900000000000091e+02,2.138017131838370818e-02
4.834499999999999886e+02,2.106012956213806561e-02
4.844200000000000159e+02,1.987600690194009367e-02
4.853799999999999955e+02,1.822016431923178387e-02
4.863399999999999750e+02,1.661449592586151588e-02
4.873100000000000023e+02,1.559582427638087944e-02
4.882699999999999818e+02,1.540017441750945668e-02
4.892400000000000091e+02,1.590907394495111316e-02
4.901999999999999886e+02,1.685339817638769125e-02
4.911700000000000159e+02,1.785817906322657508e-02
4.921299999999999955e+02,1.825882969334197484e-02
4.930899999999999750e+02,1.773667616147831666e-02
4.940600000000000023e+02,1.646478699335005361e-02
4.950199999999999818e+02,1.496598785449713802e-02
4.959900000000000091e+02,1.369582029192530775e-02
4.969499999999999886e+02,1.307066522213703487e-02
4.979200000000000159e+02,1.308610071305207033e-02
4.988799999999999955e+02,1.344564506254871707e-02
4.998399999999999750e+02,1.372234009258837747e-02
5.008100000000000023e+02,1.398145352067659691e-02
5.017699999999999818e+02,1.430229712060614687e-02
5.027400000000000091e+02,1.460567703677312021e-02
5.036999999999999886e+02,1.477991295255685553e-02
5.046700000000000159e+02,1.469970500052924720e-02
5.056299999999999955e+02,1.435559614194779898e-02
5.065899999999999750e+02,1.405133183936473247e-02
5.075600000000000023e+02,1.417127822102083427e-02
5.085199999999999818e+02,1.492603717212852635e-02
5.094900000000000091e+02,1.610682274758323471e-02
5.104499999999999886e+02,1.727552170868515077e-02
5.114100000000000250e+02,1.798370297521363972e-02
5.123799999999999955e+02,1.824229756327120505e-02
5.133400000000000318e+02,1.837937745776131379e-02
5.143099999999999454e+02,1.898328366992607652e-02
5.152699999999999818e+02,2.040284178589945110e-02
5.162400000000000091e+02,2.264399488239744046e-02
5.172000000000000455e+02,2.538600548586040714e-02
5.181599999999999682e+02,2.826445922559396237e-02
5.191299999999999955e+02,3.100441805257170627e-02
5.200900000000000318e+02,3.348540495328775762e-02
5.210599999999999454e+02,3.578914902440542140e-02
5.220199999999999818e+02,3.797403156120392198e-02
5.229900000000000091e+02,4.000369838607355233e-02
5.239500000000000455e+02,4.183647721108928186e-02
5.249099999999999682e+02,4.330218850616245757e-02
5.258799999999999955e+02,4.423947302172725332e-02
5.268400000000000318e+02,4.454327744337396866e-02
5.278099999999999454e+02,4.420519420424054435e-02
5.287699999999999818e+02,4.316981354740578175e-02
5.297400000000000091e+02,4.134350843095561945e-02
5.307000000000000455e+02,3.873820038377861347e-02
5.316599999999999682e+02,3.551776031286216911e-02
5.326299999999999955e+02,3.196849358063379165e-02
5.335900000000000318e+02,2.838664605283753445e-02
5.345599999999999454e+02,2.523255854676366775e-02
5.355199999999999818e+02,2.278902246281322430e-02
5.364800000000000182e+02,2.099817534573780384e-02
5.374500000000000455e+02,1.969760847409119178e-02
5.384099999999999682e+02,1.870867579182819082e-02
5.393799999999999955e+02,1.766081939061756381e-02
5.403400000000000318e+02,1.638080565928042368e-02
5.413099999999999454e+02,1.503580721409075206e-02
5.422699999999999818e+02,1.407886573645149991e-02
5.432300000000000182e+02,1.387726100904515363e-02
5.442000000000000455e+02,1.431229658301698751e-02
5.451599999999999682e+02,1.498635232570415081e-02
5.461299999999999955e+02,1.551115901681623770e-02
5.470900000000000318e+02,1.560054100393331797e-02
5.480599999999999454e+02,1.528940207094268630e-02
5.490199999999999818e+02,1.489577936488031655e-02
5.499800000000000182e+02,1.472140194726998148e-02
5.509500000000000455e+02,1.465920010267337571e-02
5.519099999999999682e+02,1.455445337555461363e-02
5.528799999999999955e+02,1.417954428605627988e-02
5.538400000000000318e+02,1.348557216127939731e-02
5.548099999999999454e+02,1.256583387220939173e-02
5.557699999999999818e+02,1.156966101315356175e-02
5.567300000000000182e+02,1.080565727604313082e-02
5.577000000000000455e+02,1.058854630680850992e-02
5.586599999999999682e+02,1.098807671413008086e-02
5.596299999999999955e+02,1.186104864951859246e-02
5.605900000000000318e+02,1.291824417128296064e-02
5.615499999999999545e+02,1.396217389680636488e-02
5.625199999999999818e+02,1.486910627057180974e-02
5.634800000000000182e+02,1.557469333694640364e-02
5.644500000000000455e+02,1.612129130935021845e-02
5.654099999999999682e+02,1.662901165490381777e-02
5.663799999999999955e+02,1.716855811961688280e-02
5.673400000000000318e+02,1.784346287326341041e-02
5.682999999999999545e+02,1.865571873323430135e-02
5.692699999999999818e+02,1.954259322308335781e-02
5.702300000000000182e+02,2.036403490996249385e-02
5.712000000000000455e+02,2.099841118211552213e-02
5.721599999999999682e+02,2.132321683318907576e-02
5.731299999999999955e+02,2.125786657295134635e-02
5.740900000000000318e+02,2.103265462414565315e-02
5.750499999999999545e+02,2.090236681733090643e-02
5.760199999999999818e+02,2.108797004651576795e-02
5.769800000000000182e+02,2.166396502338958571e-02
5.779500000000000455e+02,2.282371399396084660e-02
5.789099999999999682e+02,2.453273767982194417e-02
5.798799999999999955e+02,2.675461115244982119e-02
5.808400000000000318e+02,2.970257766448606424e-02
5.817999999999999545e+02,3.368791765074784922e-02
5.827699999999999818e+02,3.886500960402357319e-02
5.837300000000000182e+02,4.504106907742995436e-02
5.847000000000000455e+02,5.188923864340812264e-02
