# wavenumber, intensity
2.009300000000000068e+02,3.514321781547591339e-02
2.019000000000000057e+02,3.407125300681554392e-02
2.028600000000000136e+02,3.279977561779198053e-02
2.038199999999999932e+02,3.214521857861291770e-02
2.047899999999999920e+02,3.262357490868036253e-02
2.057500000000000000e+02,3.396605001774295751e-02
2.067199999999999989e+02,3.519253767393022009e-02
2.076800000000000068e+02,3.556367573633645307e-02
2.086500000000000057e+02,3.483564272912345605e-02
2.096100000000000136e+02,3.339471853761306896e-02
2.105699999999999932e+02,3.220080214079164976e-02
2.115399999999999920e+02,3.183434823943136899e-02
2.125000000000000000e+02,3.224734418281163112e-02
2.134699999999999989e+02,3.299648314822588302e-02
2.144300000000000068e+02,3.355414341414093143e-02
2.154000000000000057e+02,3.341527982592505663e-02
2.163600000000000136e+02,3.285557704792622241e-02
2.173199999999999932e+02,3.246973289851550620e-02
2.182899999999999920e+02,3.287246181448698346e-02
2.192500000000000000e+02,3.453509388433952110e-02
2.202199999999999989e+02,3.738036768430986340e-02
2.211800000000000068e+02,4.103818002478118454e-02
2.221399999999999864e+02,4.531220464424143279e-02
2.231100000000000136e+02,4.993528096210620576e-02
2.240699999999999932e+02,5.448863953417108080e-02
2.250399999999999920e+02,5.774296042082608521e-02
2.260000000000000000e+02,5.831028857727213466e-02
2.269699999999999989e+02,5.575845568003364588e-02
2.279300000000000068e+02,5.092451041461904665e-02
2.288899999999999864e+02,4.541569192316326914e-02
2.298600000000000136e+02,4.088324867483773828e-02
2.308199999999999932e+02,3.818961097198169535e-02
2.317899999999999920e+02,3.696598283271219920e-02
2.327500000000000000e+02,3.641485860546619241e-02
2.337199999999999989e+02,3.606972853026285675e-02
2.346800000000000068e+02,3.597204198565970984e-02
2.356399999999999864e+02,3.628650714610893308e-02
2.366100000000000136e+02,3.668204641954491557e-02
2.375699999999999932e+02,3.687790971165122444e-02
2.385399999999999920e+02,3.660979595876111964e-02
2.395000000000000000e+02,3.582449091271329433e-02
2.404699999999999989e+02,3.499591184397952970e-02
2.414300000000000068e+02,3.457883087643112696e-02
2.423899999999999864e+02,3.480827306719789377e-02
2.433600000000000136e+02,3.549883278604358539e-02
2.443199999999999932e+02,3.623201292370843707e-02
2.452899999999999920e+02,3.671478107987762030e-02
2.462500000000000000e+02,3.698044381826706695e-02
2.472100000000000080e+02,3.715087102655409423e-02
2.481800000000000068e+02,3.745242751063249109e-02
2.491399999999999864e+02,3.760991880905446144e-02
2.501100000000000136e+02,3.734556327839892720e-02
2.510699999999999932e+02,3.657673449649523345e-02
2.520399999999999920e+02,3.561702615197007149e-02
2.530000000000000000e+02,3.503425660416934623e-02
2.539600000000000080e+02,3.527524579658418424e-02
2.549300000000000068e+02,3.636523917857260868e-02
2.558899999999999864e+02,3.765697828746923659e-02
2.568600000000000136e+02,3.846679347852496184e-02
2.578199999999999932e+02,3.844884660568052143e-02
2.587900000000000205e+02,3.749502069595732345e-02
2.597500000000000000e+02,3.606509883620600404e-02
2.607099999999999795e+02,3.477591967578786553e-02
2.616800000000000068e+02,3.441749965529125599e-02
2.626399999999999864e+02,3.515528225351845226e-02
2.636100000000000136e+02,3.651581316940343686e-02
2.645699999999999932e+02,3.773219719914862325e-02
2.655400000000000205e+02,3.829391525573720700e-02
2.665000000000000000e+02,3.825753130714803357e-02
2.674599999999999795e+02,3.794540822722165113e-02
2.684300000000000068e+02,3.776585779829257777e-02
2.693899999999999864e+02,3.775564523787266341e-02
2.703600000000000136e+02,3.762119347575808292e-02
2.713199999999999932e+02,3.720413974170430627e-02
2.722799999999999727e+02,3.643345908217773127e-02
2.732500000000000000e+02,3.557612144330153658e-02
2.742099999999999795e+02,3.520615442115692523e-02
2.751800000000000068e+02,3.561729848691438244e-02
2.761399999999999864e+02,3.658367903758046741e-02
2.771100000000000136e+02,3.755678626137655407e-02
2.780699999999999932e+02,3.804881380565979659e-02
2.790299999999999727e+02,3.812008386064351384e-02
2.800000000000000000e+02,3.796656865241170714e-02
2.809599999999999795e+02,3.790025509341839183e-02
2.819300000000000068e+02,3.816183280763973951e-02
2.828899999999999864e+02,3.852556335955462097e-02
2.838600000000000136e+02,3.860481282841310424e-02
2.848199999999999932e+02,3.832980900142629599e-02
2.857799999999999727e+02,3.786270010456765228e-02
2.867500000000000000e+02,3.734041614794716968e-02
2.877099999999999795e+02,3.654884739817518963e-02
2.886800000000000068e+02,3.549444819343695878e-02
2.896399999999999864e+02,3.461614076383191102e-02
2.906100000000000136e+02,3.455878702451359308e-02
2.915699999999999932e+02,3.527222287869967443e-02
2.925299999999999727e+02,3.616371131962000524e-02
2.935000000000000000e+02,3.628664331358132794e-02
2.944599999999999795e+02,3.537383104650453775e-02
2.954300000000000068e+02,3.392585337993077321e-02
2.963899999999999864e+02,3.285478727658690257e-02
2.973600000000000136e+02,3.264672337896549342e-02
2.983199999999999932e+02,3.331939069195560821e-02
2.992799999999999727e+02,3.420984426008676083e-02
3.002500000000000000e+02,3.471998207818117327e-02
3.012099999999999795e+02,3.459734965265914147e-02
3.021800000000000068e+02,3.386926217845714210e-02
3.031399999999999864e+02,3.263395087006733947e-02
3.041000000000000227e+02,3.142127059556790863e-02
3.050699999999999932e+02,3.082420346317930188e-02
3.060299999999999727e+02,3.136876441826210588e-02
3.070000000000000000e+02,3.284392111229986894e-02
3.079599999999999795e+02,3.441493970681255843e-02
3.089300000000000068e+02,3.536557929768503750e-02
3.098899999999999864e+02,3.551130572650337131e-02
3.108500000000000227e+02,3.509354392159370201e-02
3.118199999999999932e+02,3.466216536945741084e-02
3.127799999999999727e+02,3.461085746590781415e-02
3.137500000000000000e+02,3.478994492543106137e-02
3.147099999999999795e+02,3.510054292966802159e-02
3.156800000000000068e+02,3.550950831586933976e-02
3.166399999999999864e+02,3.606716858178417306e-02
3.176000000000000227e+02,3.668346256125645105e-02
3.185699999999999932e+02,3.693452814661914163e-02
3.195299999999999727e+02,3.672684551792036733e-02
3.205000000000000000e+02,3.639625812875493804e-02
3.214599999999999795e+02,3.633294025415149259e-02
3.224300000000000068e+02,3.676584388197685904e-02
3.233899999999999864e+02,3.759439571721610862e-02
3.243500000000000227e+02,3.815641334224362247e-02
3.253199999999999932e+02,3.787936700317297289e-02
3.262799999999999727e+02,3.660097230655846162e-02
3.272500000000000000e+02,3.468678444844313508e-02
3.282099999999999795e+02,3.321407876890591915e-02
3.291700000000000159e+02,3.262096049321297486e-02
3.301399999999999864e+02,3.269650620682563319e-02
3.311000000000000227e+02,3.306372264603052447e-02
3.320699999999999932e+02,3.334662418640884501e-02
3.330299999999999727e+02,3.342971357798513871e-02
3.340000000000000000e+02,3.345822704667741204e-02
3.349599999999999795e+02,3.374426043891759486e-02
3.359200000000000159e+02,3.424696351302624481e-02
3.368899999999999864e+02,3.484059922511371921e-02
3.378500000000000227e+02,3.514591393142682541e-02
3.388199999999999932e+02,3.520844203469097877e-02
3.397799999999999727e+02,3.531571476934145665e-02
3.407500000000000000e+02,3.542064542346901740e-02
3.417099999999999795e+02,3.544847805480004499e-02
3.426700000000000159e+02,3.544556407089355377e-02
3.436399999999999864e+02,3.533643945862020852e-02
3.446000000000000227e+02,3.496513799524743338e-02
3.455699999999999932e+02,3.427550421521311647e-02
3.465299999999999727e+02,3.329776729736012852e-02
3.475000000000000000e+02,3.218211996359690574e-02
3.484599999999999795e+02,3.141157547154254520e-02
3.494200000000000159e+02,3.144297569064677389e-02
3.503899999999999864e+02,3.252545262816609883e-02
3.513500000000000227e+02,3.423729562249529235e-02
3.523199999999999932e+02,3.572255594297530507e-02
3.532799999999999727e+02,3.637240158761388675e-02
3.542400000000000091e+02,3.581261710913179186e-02
3.552099999999999795e+02,3.424478483347029312e-02
3.561700000000000159e+02,3.242144791285023891e-02
3.571399999999999864e+02,3.109005683602984738e-02
3.581000000000000227e+02,3.061477789083527634e-02
3.590699999999999932e+02,3.084705236502525635e-02
3.600299999999999727e+02,3.156383793902932389e-02
3.609900000000000091e+02,3.245453660861050138e-02
3.619599999999999795e+02,3.332086130065618074e-02
3.629200000000000159e+02,3.387947473887692462e-02
3.638899999999999864e+02,3.392432830424112894e-02
3.648500000000000227e+02,3.338603105288243111e-02
3.658199999999999932e+02,3.235197526850051158e-02
3.667799999999999727e+02,3.126304399279561386e-02
3.677400000000000091e+02,3.051077317551917703e-02
3.687099999999999795e+02,3.024091647898397017e-02
3.696700000000000159e+02,3.050630688242886995e-02
3.706399999999999864e+02,3.115092369613234324e-02
3.716000000000000227e+02,3.195714406592017887e-02
3.725699999999999932e+02,3.267643512141392426e-02
3.735299999999999727e+02,3.345444159094842357e-02
3.744900000000000091e+02,3.432316283050595995e-02
3.754599999999999795e+02,3.515669839523014040e-02
3.764200000000000159e+02,3.579189241985284570e-02
3.773899999999999864e+02,3.616766017631595220e-02
3.783500000000000227e+02,3.624827131989703799e-02
3.793100000000000023e+02,3.603018549631713946e-02
3.802799999999999727e+02,3.582370114137412714e-02
3.812400000000000091e+02,3.614432107156966695e-02
3.822099999999999795e+02,3.699681114843313828e-02
3.831700000000000159e+02,3.809252356425676250e-02
3.841399999999999864e+02,3.875141072905370632e-02
3.851000000000000227e+02,3.870040239394333115e-02
3.860600000000000023e+02,3.817482318449418738e-02
3.870299999999999727e+02,3.767201117640761598e-02
3.879900000000000091e+02,3.781122880005133302e-02
3.889599999999999795e+02,3.849626011952301391e-02
3.899200000000000159e+02,3.921860132639556212e-02
3.908899999999999864e+02,3.946326704056183493e-02
3.918500000000000227e+02,3.900952978947980904e-02
3.928100000000000023e+02,3.807362351910655723e-02
3.937799999999999727e+02,3.701257934172155761e-02
3.947400000000000091e+02,3.630633313007085305e-02
3.957099999999999795e+02,3.593568527056498207e-02
3.966700000000000159e+02,3.595627379237145704e-02
3.976399999999999864e+02,3.631992264380287661e-02
3.986000000000000227e+02,3.697137506461404405e-02
3.995600000000000023e+02,3.794674266844970389e-02
4.005299999999999727e+02,3.875729316385554540e-02
4.014900000000000091e+02,3.906598482348078855e-02
4.024599999999999795e+02,3.865350631649513286e-02
4.034200000000000159e+02,3.767448942440283083e-02
4.043799999999999955e+02,3.649113962342927925e-02
4.053500000000000227e+02,3.540278025110785848e-02
4.063100000000000023e+02,3.477518437143743701e-02
4.072799999999999727e+02,3.455402116298428999e-02
4.082400000000000091e+02,3.452158607109080679e-02
4.092099999999999795e+02,3.452188563952981321e-02
4.101700000000000159e+02,3.455026294074982351e-02
4.111299999999999955e+02,3.464375552720709572e-02
4.121000000000000227e+02,3.465587443223876185e-02
4.130600000000000023e+02,3.453969634490218488e-02
4.140299999999999727e+02,3.457082422906199159e-02
4.149900000000000091e+02,3.514237357714782711e-02
4.159599999999999795e+02,3.607166210836882519e-02
4.169200000000000159e+02,3.697802003726051445e-02
4.178799999999999955e+02,3.750128439968138799e-02
4.188500000000000227e+02,3.727246857928705887e-02
4.198100000000000023e+02,3.661935491531418535e-02
4.207799999999999727e+02,3.590583736064441311e-02
4.217400000000000091e+02,3.532287717838260288e-02
4.227099999999999795e+02,3.503442000513604798e-02
4.236700000000000159e+02,3.502004072006486418e-02
4.246299999999999955e+02,3.530109038282017164e-02
4.256000000000000227e+02,3.584382669377476904e-02
4.265600000000000023e+02,3.659985573328563419e-02
4.275299999999999727e+02,3.721059407988956680e-02
4.284900000000000091e+02,3.736974662147320853e-02
4.294499999999999886e+02,3.696846108070770548e-02
4.304200000000000159e+02,3.620853765149004838e-02
4.313799999999999955e+02,3.564829020360207185e-02
4.323500000000000227e+02,3.537532888869920206e-02
4.333100000000000023e+02,3.551697029334940220e-02
4.342799999999999727e+02,3.604148739651497763e-02
4.352400000000000091e+02,3.677899765979784213e-02
4.361999999999999886e+02,3.765264816185143887e-02
4.371700000000000159e+02,3.861162120202631803e-02
4.381299999999999955e+02,3.980856051673185153e-02
4.391000000000000227e+02,4.099136564781632325e-02
4.400600000000000023e+02,4.185039176334866967e-02
4.410299999999999727e+02,4.218841389649993084e-02
4.419900000000000091e+02,4.238686437057921641e-02
4.429499999999999886e+02,4.274800774052085056e-02
4.439200000000000159e+02,4.328181146529476442e-02
4.448799999999999955e+02,4.353843268352584200e-02
4.458500000000000227e+02,4.314349254696803887e-02
4.468100000000000023e+02,4.216101700108023514e-02
4.477799999999999727e+02,4.101157290070068379e-02
4.487400000000000091e+02,4.030445521722729463e-02
4.496999999999999886e+02,4.028773385163304799e-02
4.506700000000000159e+02,4.079269730578137521e-02
4.516299999999999955e+02,4.145332741422329964e-02
4.526000000000000227e+02,4.184916625609821916e-02
4.535600000000000023e+02,4.187710782140703636e-02
4.545299999999999727e+02,4.135994376174387255e-02
4.554900000000000091e+02,4.043103649944522482e-02
4.564499999999999886e+02,3.928646719457286329e-02
4.574200000000000159e+02,3.890961009833145134e-02
4.583799999999999955e+02,3.938222016106925766e-02
4.593500000000000227e+02,3.999434741589023151e-02
4.603100000000000023e+02,3.972182183689895729e-02
4.612699999999999818e+02,3.815889159023924670e-02
4.622400000000000091e+02,3.589401802405214892e-02
4.631999999999999886e+02,3.400572921916142355e-02
4.641700000000000159e+02,3.343965380346022170e-02
4.651299999999999955e+02,3.434674703670199253e-02
4.661000000000000227e+02,3.592637141546182328e-02
4.670600000000000023e+02,3.700067830464556784e-02
4.680199999999999818e+02,3.702325487154722178e-02
4.689900000000000091e+02,3.646175468291448091e-02
4.699499999999999886e+02,3.568979404914852938e-02
4.709200000000000159e+02,3.509248181530989774e-02
4.718799999999999955e+02,3.470394154994830421e-02
4.728500000000000227e+02,3.461951771714392306e-02
4.738100000000000023e+02,3.472962273521763843e-02
4.747699999999999818e+02,3.500114067491447850e-02
4.757400000000000091e+02,3.561757082185900564e-02
4.766999999999999886e+02,3.675168246486135853e-02
4.776700000000000159e+02,3.830794050538032652e-02
4.786299999999999955e+02,3.979592417530557896e-02
4.796000000000000227e+02,4.058327173343753702e-02
4.805600000000000023e+02,4.035241340095926249e-02
4.815199999999999818e+02,3.944289638671113346e-02
4.824900000000000091e+02,3.856276431297763624e-02
4.834499999999999886e+02,3.812000216015984377e-02
4.844200000000000159e+02,3.787313053294296544e-02
4.853799999999999955e+02,3.731043207055440708e-02
4.863399999999999750e+02,3.611515399901067680e-02
4.873100000000000023e+02,3.457768706966428407e-02
4.882699999999999818e+02,3.332140597054533693e-02
4.892400000000000091e+02,3.296867775038934967e-02
4.901999999999999886e+02,3.348497033823008562e-02
4.911700000000000159e+02,3.434524919450730740e-02
4.921299999999999955e+02,3.500002410164185229e-02
4.930899999999999750e+02,3.526484260170319185e-02
4.940600000000000023e+02,3.524286517167956462e-02
4.950199999999999818e+02,3.494550264574687592e-02
4.959900000000000091e+02,3.442596927206625218e-02
4.969499999999999886e+02,3.392059731550115670e-02
4.979200000000000159e+02,3.360882827100270670e-02
4.988799999999999955e+02,3.364815343699289335e-02
4.998399999999999750e+02,3.426493761936531129e-02
5.008100000000000023e+02,3.545283541391240634e-02
5.017699999999999818e+02,3.655437579754897831e-02
5.027400000000000091e+02,3.697717579893256695e-02
5.036999999999999886e+02,3.653019245447499536e-02
5.046700000000000159e+02,3.564681959490177687e-02
5.056299999999999955e+02,3.483872011399656576e-02
5.065899999999999750e+02,3.457068806158954122e-02
5.075600000000000023e+02,3.507894676856654348e-02
5.085199999999999818e+02,3.603269097780653629e-02
5.094900000000000091e+02,3.656235521142386230e-02
5.104499999999999886e+02,3.615118391217194554e-02
5.114100000000000250e+02,3.512461733876462433e-02
5.123799999999999955e+02,3.414794252719519779e-02
5.133400000000000318e+02,3.363911191683444796e-02
5.143099999999999454e+02,3.357622977814227194e-02
5.152699999999999818e+02,3.378715319268109363e-02
5.162400000000000091e+02,3.408111153180736624e-02
5.172000000000000455e+02,3.429925182237630182e-02
5.181599999999999682e+02,3.459198465425194352e-02
5.191299999999999955e+02,3.514678540324917694e-02
5.200900000000000318e+02,3.598821868136475866e-02
5.210599999999999454e+02,3.675083822653332777e-02
5.220199999999999818e+02,3.700261188275178609e-02
5.229900000000000091e+02,3.662229613271511530e-02
5.239500000000000455e+02,3.600581151878160663e-02
5.249099999999999682e+02,3.557672058017943839e-02
5.258799999999999955e+02,3.540986095966560526e-02
5.268400000000000318e+02,3.546223096949879111e-02
5.278099999999999454e+02,3.559145390067850606e-02
5.287699999999999818e+02,3.581988845215063749e-02
5.297400000000000091e+02,3.607994109068271560e-02
5.307000000000000455e+02,3.631937797391378980e-02
5.316599999999999682e+02,3.643315951373859302e-02
5.326299999999999955e+02,3.636627405136198116e-02
5.335900000000000318e+02,3.588723688393307548e-02
5.345599999999999454e+02,3.517064194439022823e-02
5.355199999999999818e+02,3.462354827432300580e-02
5.364800000000000182e+02,3.446417786478373629e-02
5.374500000000000455e+02,3.459432673477481901e-02
5.384099999999999682e+02,3.488586129289465709e-02
5.393799999999999955e+02,3.518532079790032130e-02
5.403400000000000318e+02,3.538344447004621030e-02
5.413099999999999454e+02,3.548129441561599651e-02
5.422699999999999818e+02,3.563881294753238477e-02
5.432300000000000182e+02,3.593794565060454832e-02
5.442000000000000455e+02,3.640881276969760993e-02
5.451599999999999682e+02,3.681633478069289145e-02
5.461299999999999955e+02,3.707557041439141915e-02
5.470900000000000318e+02,3.717636157736216307e-02
5.480599999999999454e+02,3.703137045289417451e-02
5.490199999999999818e+02,3.669076113776995052e-02
5.499800000000000182e+02,3.607991385718830463e-02
5.509500000000000455e+02,3.548750365235136400e-02
5.519099999999999682e+02,3.527647130383468332e-02
5.528799999999999955e+02,3.559507595544066094e-02
5.538400000000000318e+02,3.621774257261489022e-02
5.548099999999999454e+02,3.655088991025905176e-02
5.557699999999999818e+02,3.619304179314633552e-02
5.567300000000000182e+02,3.528619366135465202e-02
5.577000000000000455e+02,3.452531705983098026e-02
5.586599999999999682e+02,3.455459306636772532e-02
5.596299999999999955e+02,3.526805615404840499e-02
5.605900000000000318e+02,3.613533401840010595e-02
5.615499999999999545e+02,3.634435108832735628e-02
5.625199999999999818e+02,3.588769985333881835e-02
5.634800000000000182e+02,3.505781357687123151e-02
5.644500000000000455e+02,3.425377188663956962e-02
5.654099999999999682e+02,3.375602530852134242e-02
5.663799999999999955e+02,3.343355350070291443e-02
5.673400000000000318e+02,3.318564700069691342e-02
5.682999999999999545e+02,3.312657755122822706e-02
5.692699999999999818e+02,3.337069859550528123e-02
5.702300000000000182e+02,3.385210507695168847e-02
5.712000000000000455e+02,3.448190686967268076e-02
5.721599999999999682e+02,3.519814777378763027e-02
5.731299999999999955e+02,3.559447681856277995e-02
5.740900000000000318e+02,3.564592088958463967e-02
5.750499999999999545e+02,3.541062349751038923e-02
5.760199999999999818e+02,3.508066247871730048e-02
5.769800000000000182e+02,3.470459515381525001e-02
5.779500000000000455e+02,3.440184039598080667e-02
5.789099999999999682e+02,3.439672049902361972e-02
5.798799999999999955e+02,3.473762938258674604e-02
5.808400000000000318e+02,3.513545626955673351e-02
5.817999999999999545e+02,3.550408885047307006e-02
5.827699999999999818e+02,3.566694514730230081e-02
5.837300000000000182e+02,3.538434317536320178e-02
5.847000000000000455e+02,3.454465284089261456e-02
