# wavenumber, intensity
2.009300000000000068e+02,3.589001953658504940e-02
2.019000000000000057e+02,3.643810044005124649e-02
2.028600000000000136e+02,3.714392381687937894e-02
2.038199999999999932e+02,3.888030091548119044e-02
2.047899999999999920e+02,4.220238936388751028e-02
2.057500000000000000e+02,4.691239471051447674e-02
2.067199999999999989e+02,5.187910253369114322e-02
2.076800000000000068e+02,5.563547358893448924e-02
2.086500000000000057e+02,5.739817153728878074e-02
2.096100000000000136e+02,5.751026913720853201e-02
2.105699999999999932e+02,5.725983298612034172e-02
2.115399999999999920e+02,5.798340524471938540e-02
2.125000000000000000e+02,6.026027288898785916e-02
2.134699999999999989e+02,6.373397445415762697e-02
2.144300000000000068e+02,6.758994470061331639e-02
2.154000000000000057e+02,7.031013489664664218e-02
2.163600000000000136e+02,7.163189583425923213e-02
2.173199999999999932e+02,7.241241289746085108e-02
2.182899999999999920e+02,7.388735067968356385e-02
2.192500000000000000e+02,7.692318561944673505e-02
2.202199999999999989e+02,8.135497296403319811e-02
2.211800000000000068e+02,8.616623254229539841e-02
2.221399999999999864e+02,9.034035862829502272e-02
2.231100000000000136e+02,9.319182206500371823e-02
2.240699999999999932e+02,9.469276110296581672e-02
2.250399999999999920e+02,9.440600537515994595e-02
2.260000000000000000e+02,9.177764138739037680e-02
2.269699999999999989e+02,8.640450129276133762e-02
2.279300000000000068e+02,7.930450343547686132e-02
2.288899999999999864e+02,7.183770296430180835e-02
2.298600000000000136e+02,6.537252154268827220e-02
2.308199999999999932e+02,6.043874331688121881e-02
2.317899999999999920e+02,5.649180291755333955e-02
2.327500000000000000e+02,5.261428290339114494e-02
2.337199999999999989e+02,4.843163050569852801e-02
2.346800000000000068e+02,4.416844041683045535e-02
2.356399999999999864e+02,4.032325646830003940e-02
2.366100000000000136e+02,3.672845160049834773e-02
2.375699999999999932e+02,3.328522560724433282e-02
2.385399999999999920e+02,2.988908266048952156e-02
2.395000000000000000e+02,2.650944446167115623e-02
2.404699999999999989e+02,2.339937239840932104e-02
2.414300000000000068e+02,2.091331905882168329e-02
2.423899999999999864e+02,1.922071492587403355e-02
2.433600000000000136e+02,1.823227912933210459e-02
2.443199999999999932e+02,1.759651532569482882e-02
2.452899999999999920e+02,1.713196260023640283e-02
2.462500000000000000e+02,1.672925131621611286e-02
2.472100000000000080e+02,1.649077711245673303e-02
2.481800000000000068e+02,1.640767125510864469e-02
2.491399999999999864e+02,1.621055023376546250e-02
2.501100000000000136e+02,1.555655815733817011e-02
2.510699999999999932e+02,1.442770644854599743e-02
2.520399999999999920e+02,1.319674445272787586e-02
2.530000000000000000e+02,1.228415516381909690e-02
2.539600000000000080e+02,1.218326618248413533e-02
2.549300000000000068e+02,1.295515420734538736e-02
2.558899999999999864e+02,1.401489371091282042e-02
2.568600000000000136e+02,1.465937786546546960e-02
2.578199999999999932e+02,1.445766838722718599e-02
2.587900000000000205e+02,1.340884073637577979e-02
2.597500000000000000e+02,1.190824412056984416e-02
2.607099999999999795e+02,1.057811666827048608e-02
2.616800000000000068e+02,1.011091587813600645e-02
2.626399999999999864e+02,1.080174116451548469e-02
2.636100000000000136e+02,1.221391296547803644e-02
2.645699999999999932e+02,1.354225982256435958e-02
2.655400000000000205e+02,1.436425562297284804e-02
2.665000000000000000e+02,1.460536647733621553e-02
2.674599999999999795e+02,1.449030121872813166e-02
2.684300000000000068e+02,1.440617950898282623e-02
2.693899999999999864e+02,1.460980655129674559e-02
2.703600000000000136e+02,1.485559717513025048e-02
2.713199999999999932e+02,1.477220596598536294e-02
2.722799999999999727e+02,1.414399827793174150e-02
2.732500000000000000e+02,1.308869884832509697e-02
2.742099999999999795e+02,1.195772412216339516e-02
2.751800000000000068e+02,1.105412912189498824e-02
2.761399999999999864e+02,1.060070511651803674e-02
2.771100000000000136e+02,1.059378818895957870e-02
2.780699999999999932e+02,1.085693961612041979e-02
2.790299999999999727e+02,1.109028890160630720e-02
2.800000000000000000e+02,1.111030918368140739e-02
2.809599999999999795e+02,1.103738467844913099e-02
2.819300000000000068e+02,1.102076578979386580e-02
2.828899999999999864e+02,1.115686718287408480e-02
2.838600000000000136e+02,1.141246249445125940e-02
2.848199999999999932e+02,1.159628612205591998e-02
2.857799999999999727e+02,1.149813651797197515e-02
2.867500000000000000e+02,1.097387678251661794e-02
2.877099999999999795e+02,9.921339558304652015e-03
2.886800000000000068e+02,8.630910247999145843e-03
2.896399999999999864e+02,7.806083757764850986e-03
2.906100000000000136e+02,7.809553635615756537e-03
2.915699999999999932e+02,8.489889389938793524e-03
2.925299999999999727e+02,9.266263145048438815e-03
2.935000000000000000e+02,9.246117308182965136e-03
2.944599999999999795e+02,8.108556662547559621e-03
2.954300000000000068e+02,6.318750293481952864e-03
2.963899999999999864e+02,4.789618497979305188e-03
2.973600000000000136e+02,4.260279500537745428e-03
2.983199999999999932e+02,4.837785881306673301e-03
2.992799999999999727e+02,5.928560246311988420e-03
3.002500000000000000e+02,6.710138818198319033e-03
3.012099999999999795e+02,6.611818003036285842e-03
3.021800000000000068e+02,5.400259929411900875e-03
3.031399999999999864e+02,3.534367357203695940e-03
3.041000000000000227e+02,1.870732138683936464e-03
3.050699999999999932e+02,1.154841550458757986e-03
3.060299999999999727e+02,1.825680796978780378e-03
3.070000000000000000e+02,3.619322294195579260e-03
3.079599999999999795e+02,5.788555240649307689e-03
3.089300000000000068e+02,7.580028064209315755e-03
3.098899999999999864e+02,8.573212114652773580e-03
3.108500000000000227e+02,8.719825867933269151e-03
3.118199999999999932e+02,8.275339080837338171e-03
3.127799999999999727e+02,7.693449696466947256e-03
3.137500000000000000e+02,7.189701048177335116e-03
3.147099999999999795e+02,6.996894546004198481e-03
3.156800000000000068e+02,7.242719412053308901e-03
3.166399999999999864e+02,7.956760920633959913e-03
3.176000000000000227e+02,8.936407881829335625e-03
3.185699999999999932e+02,9.876950232768693869e-03
3.195299999999999727e+02,1.056257070237172878e-02
3.205000000000000000e+02,1.099711583286149853e-02
3.214599999999999795e+02,1.125014297826604573e-02
3.224300000000000068e+02,1.158238378250788826e-02
3.233899999999999864e+02,1.224103280026163018e-02
3.243500000000000227e+02,1.305725308029934834e-02
3.253199999999999932e+02,1.342213813011411058e-02
3.262799999999999727e+02,1.291543323720815289e-02
3.272500000000000000e+02,1.153152267821709251e-02
3.282099999999999795e+02,1.006827290559778043e-02
3.291700000000000159e+02,9.225081173710692958e-03
3.301399999999999864e+02,9.145251154991707043e-03
3.311000000000000227e+02,9.454001799307554244e-03
3.320699999999999932e+02,9.686552099762090265e-03
3.330299999999999727e+02,9.776426501734152008e-03
3.340000000000000000e+02,9.948915955963238272e-03
3.349599999999999795e+02,1.034827150285110887e-02
3.359200000000000159e+02,1.080926303788350487e-02
3.368899999999999864e+02,1.098638660529559045e-02
3.378500000000000227e+02,1.072602021167327717e-02
3.388199999999999932e+02,1.032090055848649060e-02
3.397799999999999727e+02,1.030240976204302092e-02
3.407500000000000000e+02,1.078364986058794397e-02
3.417099999999999795e+02,1.145278841039831276e-02
3.426700000000000159e+02,1.191735254992877524e-02
3.436399999999999864e+02,1.202191686240848545e-02
3.446000000000000227e+02,1.176085421040138149e-02
3.455699999999999932e+02,1.097873917713686198e-02
3.465299999999999727e+02,9.677386600043630729e-03
3.475000000000000000e+02,8.009265651275803907e-03
3.484599999999999795e+02,6.968256639661071436e-03
3.494200000000000159e+02,7.553319136013364812e-03
3.503899999999999864e+02,9.854156331226805732e-03
3.513500000000000227e+02,1.278994693097447628e-02
3.523199999999999932e+02,1.495725089928090848e-02
3.532799999999999727e+02,1.533503385031867450e-02
3.542400000000000091e+02,1.382338841293431937e-02
3.552099999999999795e+02,1.121085574286003091e-02
3.561700000000000159e+02,8.568772040692021474e-03
3.571399999999999864e+02,6.735032908965614754e-03
3.581000000000000227e+02,5.810652883806325351e-03
3.590699999999999932e+02,5.430883884261908552e-03
3.600299999999999727e+02,5.551347998868512088e-03
3.609900000000000091e+02,5.851572331491040543e-03
3.619599999999999795e+02,5.977275505089980033e-03
3.629200000000000159e+02,5.777746114580400126e-03
3.638899999999999864e+02,5.199349436204896667e-03
3.648500000000000227e+02,4.403777212195552140e-03
3.658199999999999932e+02,3.733497255197390247e-03
3.667799999999999727e+02,3.552572801849797433e-03
3.677400000000000091e+02,3.986592885032919954e-03
3.687099999999999795e+02,4.525896367224328809e-03
3.696700000000000159e+02,4.706101734043659050e-03
3.706399999999999864e+02,4.614435322786836387e-03
3.716000000000000227e+02,4.585489236502640273e-03
3.725699999999999932e+02,4.862485932851986353e-03
3.735299999999999727e+02,5.258257461170078376e-03
3.744900000000000091e+02,5.450698713043262804e-03
3.754599999999999795e+02,5.186052042466551132e-03
3.764200000000000159e+02,4.827764326197670451e-03
3.773899999999999864e+02,5.024451612809249616e-03
3.783500000000000227e+02,6.124494204179809637e-03
3.793100000000000023e+02,7.758738187612302696e-03
3.802799999999999727e+02,9.293942269354345601e-03
3.812400000000000091e+02,1.059287506320949132e-02
3.822099999999999795e+02,1.187989156602321794e-02
3.831700000000000159e+02,1.320056816680689749e-02
3.841399999999999864e+02,1.424553786136348137e-02
3.851000000000000227e+02,1.440404507754162490e-02
3.860600000000000023e+02,1.360248046579614657e-02
3.870299999999999727e+02,1.246586718812640535e-02
3.879900000000000091e+02,1.197880591292311073e-02
3.889599999999999795e+02,1.265677895436721941e-02
3.899200000000000159e+02,1.421406926519407782e-02
3.908899999999999864e+02,1.566714909976961098e-02
3.918500000000000227e+02,1.623935935118716103e-02
3.928100000000000023e+02,1.559714659693861062e-02
3.937799999999999727e+02,1.429015546833723588e-02
3.947400000000000091e+02,1.325099553636674594e-02
3.957099999999999795e+02,1.304564496919892458e-02
3.966700000000000159e+02,1.360454641280577429e-02
3.976399999999999864e+02,1.457602089853615723e-02
3.986000000000000227e+02,1.562350168890607426e-02
3.995600000000000023e+02,1.647446640374231747e-02
4.005299999999999727e+02,1.711414523403396656e-02
4.014900000000000091e+02,1.774520644005725747e-02
4.024599999999999795e+02,1.846530882080539560e-02
4.034200000000000159e+02,1.905419503123733163e-02
4.043799999999999955e+02,1.902823943178547778e-02
4.053500000000000227e+02,1.830036406808805902e-02
4.063100000000000023e+02,1.720162268091153523e-02
4.072799999999999727e+02,1.600589592498255498e-02
4.082400000000000091e+02,1.497802451010003637e-02
4.092099999999999795e+02,1.431752641270176048e-02
4.101700000000000159e+02,1.399608332045700759e-02
4.111299999999999955e+02,1.364791988594453095e-02
4.121000000000000227e+02,1.308067475579442578e-02
4.130600000000000023e+02,1.242349815331287438e-02
4.140299999999999727e+02,1.199511662163759394e-02
4.149900000000000091e+02,1.191753517507879341e-02
4.159599999999999795e+02,1.207882742479504494e-02
4.169200000000000159e+02,1.224852043141398845e-02
4.178799999999999955e+02,1.217517360552226001e-02
4.188500000000000227e+02,1.163161267452025513e-02
4.198100000000000023e+02,1.074093840361843577e-02
4.207799999999999727e+02,9.617428480465305476e-03
4.217400000000000091e+02,8.433857711087101861e-03
4.227099999999999795e+02,7.442751021725643908e-03
4.236700000000000159e+02,6.964067675281423661e-03
4.246299999999999955e+02,7.160515266383679980e-03
4.256000000000000227e+02,7.913022197195068025e-03
4.265600000000000023e+02,8.775914617144414676e-03
4.275299999999999727e+02,9.201545357497106781e-03
4.284900000000000091e+02,8.925039466238494923e-03
4.294499999999999886e+02,8.271857788914463785e-03
4.304200000000000159e+02,7.913170580129707046e-03
4.313799999999999955e+02,8.376113921453178651e-03
4.323500000000000227e+02,9.371489473697224015e-03
4.333100000000000023e+02,1.039682696462269039e-02
4.342799999999999727e+02,1.102684949010520297e-02
4.352400000000000091e+02,1.121156341531642960e-02
4.361999999999999886e+02,1.123783860878089548e-02
4.371700000000000159e+02,1.142160516602609005e-02
4.381299999999999955e+02,1.193103802211115637e-02
4.391000000000000227e+02,1.269710487031442368e-02
4.400600000000000023e+02,1.352378044019299751e-02
4.410299999999999727e+02,1.425022904490567954e-02
4.419900000000000091e+02,1.466329289211991231e-02
4.429499999999999886e+02,1.478437336660803729e-02
4.439200000000000159e+02,1.480994088761605938e-02
4.448799999999999955e+02,1.497745380650610143e-02
4.458500000000000227e+02,1.523731798096579840e-02
4.468100000000000023e+02,1.525135728937649683e-02
4.477799999999999727e+02,1.463956303668439637e-02
4.487400000000000091e+02,1.348278109400536176e-02
4.496999999999999886e+02,1.240428827034136677e-02
4.506700000000000159e+02,1.207617936011927406e-02
4.516299999999999955e+02,1.282892598644002138e-02
4.526000000000000227e+02,1.423488853230063696e-02
4.535600000000000023e+02,1.527566926247789919e-02
4.545299999999999727e+02,1.528798504603509287e-02
4.554900000000000091e+02,1.431772045192399381e-02
4.564499999999999886e+02,1.293178960221024777e-02
4.574200000000000159e+02,1.202526118546891690e-02
4.583799999999999955e+02,1.190302788972095148e-02
4.593500000000000227e+02,1.207636198526915693e-02
4.603100000000000023e+02,1.188716232980986665e-02
4.612699999999999818e+02,1.107139861264743418e-02
4.622400000000000091e+02,9.988728238675933721e-03
4.631999999999999886e+02,9.239850982721665301e-03
4.641700000000000159e+02,9.196523165870376312e-03
4.651299999999999955e+02,9.795156993686590652e-03
4.661000000000000227e+02,1.055277742869979545e-02
4.670600000000000023e+02,1.080821294327084445e-02
4.680199999999999818e+02,1.026031466495497604e-02
4.689900000000000091e+02,9.523205317107668114e-03
4.699499999999999886e+02,9.132284769337839156e-03
4.709200000000000159e+02,9.175544101757610038e-03
4.718799999999999955e+02,9.493494488007531845e-03
4.728500000000000227e+02,1.004159821961731792e-02
4.738100000000000023e+02,1.064637281810433891e-02
4.747699999999999818e+02,1.095246398367256783e-02
4.757400000000000091e+02,1.131451834366147165e-02
4.766999999999999886e+02,1.278038193874084932e-02
4.776700000000000159e+02,1.615257816269417140e-02
4.786299999999999955e+02,2.110175397146501000e-02
4.796000000000000227e+02,2.647144701638698416e-02
4.805600000000000023e+02,3.097274605871446276e-02
4.815199999999999818e+02,3.372926724553733380e-02
4.824900000000000091e+02,3.471494083668456160e-02
4.834499999999999886e+02,3.442030939928219374e-02
4.844200000000000159e+02,3.258843076127201227e-02
4.853799999999999955e+02,2.873301980433881977e-02
4.863399999999999750e+02,2.299732313055843219e-02
4.873100000000000023e+02,1.679751888012236821e-02
4.882699999999999818e+02,1.192010334125153878e-02
4.892400000000000091e+02,9.567685955218034263e-03
4.901999999999999886e+02,9.605363806489134598e-03
4.911700000000000159e+02,1.060794163808884139e-02
4.921299999999999955e+02,1.089917168207131352e-02
4.930899999999999750e+02,9.979094762010413955e-03
4.940600000000000023e+02,8.615649633897515605e-03
4.950199999999999818e+02,7.878380489043842680e-03
4.959900000000000091e+02,7.995020889570941466e-03
4.969499999999999886e+02,8.978811158858129512e-03
4.979200000000000159e+02,1.033621824294727286e-02
4.988799999999999955e+02,1.141907124206900138e-02
4.998399999999999750e+02,1.153485558720556380e-02
5.008100000000000023e+02,1.094614058785183322e-02
5.017699999999999818e+02,1.044593030184450162e-02
5.027400000000000091e+02,1.045652256054764237e-02
5.036999999999999886e+02,1.076273928090631243e-02
5.046700000000000159e+02,1.081506138639786938e-02
5.056299999999999955e+02,1.011686260958492324e-02
5.065899999999999750e+02,9.048414169174253882e-03
5.075600000000000023e+02,8.419396082017010369e-03
5.085199999999999818e+02,8.816685681894673859e-03
5.094900000000000091e+02,1.009955887661645804e-02
5.104499999999999886e+02,1.127682907831789594e-02
5.114100000000000250e+02,1.123891153153754909e-02
5.123799999999999955e+02,1.000533571325941049e-02
5.133400000000000318e+02,8.435238813784608561e-03
5.143099999999999454e+02,7.565372395917230319e-03
5.152699999999999818e+02,7.888208004931033732e-03
5.162400000000000091e+02,9.191546630531295670e-03
5.172000000000000455e+02,1.068577419422911574e-02
5.181599999999999682e+02,1.182433927819017544e-02
5.191299999999999955e+02,1.244679427401711516e-02
5.200900000000000318e+02,1.276069266475012530e-02
5.210599999999999454e+02,1.303967540960651768e-02
5.220199999999999818e+02,1.329945968556314750e-02
5.229900000000000091e+02,1.354797827257563439e-02
5.239500000000000455e+02,1.389149617983359911e-02
5.249099999999999682e+02,1.435358346576630362e-02
5.258799999999999955e+02,1.480937018402202036e-02
5.268400000000000318e+02,1.506363004918943524e-02
5.278099999999999454e+02,1.506725972404690354e-02
5.287699999999999818e+02,1.487673603624958298e-02
5.297400000000000091e+02,1.467249263405409100e-02
5.307000000000000455e+02,1.464868288011525466e-02
5.316599999999999682e+02,1.481341076546698748e-02
5.326299999999999955e+02,1.498521537538353467e-02
5.335900000000000318e+02,1.487732956798722313e-02
5.345599999999999454e+02,1.440910151138389585e-02
5.355199999999999818e+02,1.396012899403967049e-02
5.364800000000000182e+02,1.411157089972467187e-02
5.374500000000000455e+02,1.513912272059435987e-02
5.384099999999999682e+02,1.680184481336371299e-02
5.393799999999999955e+02,1.844396450639233451e-02
5.403400000000000318e+02,1.941252840379375719e-02
5.413099999999999454e+02,1.932461722218505734e-02
5.422699999999999818e+02,1.838536466136805880e-02
5.432300000000000182e+02,1.727272093464329514e-02
5.442000000000000455e+02,1.683632672450910417e-02
5.451599999999999682e+02,1.735987878750786320e-02
5.461299999999999955e+02,1.834938750680631392e-02
5.470900000000000318e+02,1.906978665342346640e-02
5.480599999999999454e+02,1.900843601707625369e-02
5.490199999999999818e+02,1.821975789248159866e-02
5.499800000000000182e+02,1.721078818063005722e-02
5.509500000000000455e+02,1.661380939323600300e-02
5.519099999999999682e+02,1.662754052170579977e-02
5.528799999999999955e+02,1.679715362982162757e-02
5.538400000000000318e+02,1.653161666163832297e-02
5.548099999999999454e+02,1.545463049546248052e-02
5.557699999999999818e+02,1.378461481076270929e-02
5.567300000000000182e+02,1.236592557475740817e-02
5.577000000000000455e+02,1.195881987306364122e-02
5.586599999999999682e+02,1.274946121802133028e-02
5.596299999999999955e+02,1.419110415257441617e-02
5.605900000000000318e+02,1.545991521074211242e-02
5.615499999999999545e+02,1.619798334062732756e-02
5.625199999999999818e+02,1.645327047226379652e-02
5.634800000000000182e+02,1.629770808663043649e-02
5.644500000000000455e+02,1.585090424294309519e-02
5.654099999999999682e+02,1.521129389708280287e-02
5.663799999999999955e+02,1.443528539227340902e-02
5.673400000000000318e+02,1.374360405050286532e-02
5.682999999999999545e+02,1.368172836684890606e-02
5.692699999999999818e+02,1.451500127027318017e-02
5.702300000000000182e+02,1.608272404279711271e-02
5.712000000000000455e+02,1.773705679273581901e-02
5.721599999999999682e+02,1.871598466740290179e-02
5.731299999999999955e+02,1.864416732714295477e-02
5.740900000000000318e+02,1.752494909501631920e-02
5.750499999999999545e+02,1.582262017282819178e-02
5.760199999999999818e+02,1.416300270760963848e-02
5.769800000000000182e+02,1.308375655520156028e-02
5.779500000000000455e+02,1.287225380329122017e-02
5.789099999999999682e+02,1.320084210453197418e-02
5.798799999999999955e+02,1.340395551361151828e-02
5.808400000000000318e+02,1.298570967776455955e-02
5.817999999999999545e+02,1.198377103419036825e-02
5.827699999999999818e+02,1.079145708575313979e-02
5.837300000000000182e+02,9.749786057969457229e-03
5.847000000000000455e+02,9.207035526070682374e-03
