Created As Omnic File,BIOL 022
Raman Shift / cm-1,INT
3699.66,1
3698.36,0
3697.06,1
3695.77,1
3694.47,1
3693.18,0
3691.88,1
3690.58,1
3689.29,1
3687.99,1
3686.69,0
3685.40,-0
3684.10,0
3682.80,-0
3681.51,1
3680.21,0
3678.91,0
3677.62,0
3676.32,0
3675.02,0
3673.73,1
3672.43,-0
3671.14,0
3669.84,0
3668.54,1
3667.25,0
3665.95,1
3664.65,0
3663.36,0
3662.06,1
3660.76,1
3659.47,0
3658.17,0
3656.87,-0
3655.58,-0
3654.28,-0
3652.98,0
3651.69,0
3650.39,-0
3649.10,-0
3647.80,0
3646.50,-1
3645.21,-0
3643.91,0
3642.61,0
3641.32,-0
3640.02,0
3638.72,-0
3637.43,-1
3636.13,-0
3634.83,-0
3633.54,-1
3632.24,-0
3630.94,1
3629.65,0
3628.35,0
3627.06,-0
3625.76,-0
3624.46,1
3623.17,-1
3621.87,1
3620.57,-0
3619.28,0
3617.98,0
3616.68,1
3615.39,-0
3614.09,0
3612.79,-0
3611.50,0
3610.20,-0
3608.90,0
3607.61,-0
3606.31,-1
3605.02,-1
3603.72,-1
3602.42,0
3601.13,-1
3599.83,-0
3598.53,0
3597.24,-0
3595.94,-1
3594.64,-1
3593.35,-1
3592.05,-0
3590.75,-0
3589.46,-1
3588.16,-1
3586.87,-0
3585.57,0
3584.27,-1
3582.98,-0
3581.68,0
3580.38,1
3579.09,1
3577.79,2
3576.49,2
3575.20,1
3573.90,1
3572.60,1
3571.31,0
3570.01,0
3568.71,-1
3567.42,-0
3566.12,0
3564.83,-1
3563.53,-1
3562.23,1
3560.94,-2
3559.64,-1
3558.34,-0
3557.05,-0
3555.75,-1
3554.45,-1
3553.16,0
3551.86,-1
3550.56,-0
3549.27,-1
3547.97,-1
3546.67,-1
3545.38,0
3544.08,-0
3542.79,-1
3541.49,-1
3540.19,-0
3538.90,-1
3537.60,-0
3536.30,-1
3535.01,-0
3533.71,-0
3532.41,-0
3531.12,-1
3529.82,-1
3528.52,-0
3527.23,-0
3525.93,-1
3524.63,-1
3523.34,-0
3522.04,0
3520.75,-1
3519.45,-0
3518.15,-1
3516.86,0
3515.56,-0
3514.26,-1
3512.97,-1
3511.67,-0
3510.37,-1
3509.08,1
3507.78,0
3506.48,-0
3505.19,1
3503.89,-1
3502.59,-0
3501.30,-1
3500.00,0
3498.71,0
3497.41,-0
3496.11,-0
3494.82,-0
3493.52,-0
3492.22,-0
3490.93,-1
3489.63,0
3488.33,-1
3487.04,-0
3485.74,-1
3484.44,0
3483.15,-1
3481.85,-0
3480.55,-0
3479.26,1
3477.96,-1
3476.67,-1
3475.37,-1
3474.07,-0
3472.78,-0
3471.48,0
3470.18,0
3468.89,0
3467.59,-0
3466.29,-0
3465.00,-1
3463.70,-0
3462.40,-1
3461.11,-1
3459.81,-1
3458.51,0
3457.22,-1
3455.92,-1
3454.63,-0
3453.33,-0
3452.03,-2
3450.74,-0
3449.44,-1
3448.14,1
3446.85,-1
3445.55,0
3444.25,-1
3442.96,0
3441.66,-0
3440.36,-0
3439.07,-1
3437.77,-0
3436.47,-1
3435.18,-0
3433.88,-0
3432.59,1
3431.29,0
3429.99,-1
3428.70,-0
3427.40,0
3426.10,-1
3424.81,-0
3423.51,-0
3422.21,0
3420.92,-1
3419.62,-1
3418.32,0
3417.03,1
3415.73,0
3414.43,-1
3413.14,0
3411.84,-0
3410.55,-0
3409.25,0
3407.95,-0
3406.66,-0
3405.36,0
3404.06,-0
3402.77,-0
3401.47,-0
3400.17,0
3398.88,0
3397.58,0
3396.28,1
3394.99,-1
3393.69,-0
3392.39,-0
3391.10,1
3389.80,0
3388.51,0
3387.21,-0
3385.91,0
3384.62,-0
3383.32,-1
3382.02,-1
3380.73,-1
3379.43,-0
3378.13,-0
3376.84,0
3375.54,-1
3374.24,0
3372.95,-1
3371.65,-0
3370.35,-1
3369.06,-1
3367.76,-0
3366.47,1
3365.17,-1
3363.87,-1
3362.58,-1
3361.28,-0
3359.98,-1
3358.69,-1
3357.39,-1
3356.09,-0
3354.80,-0
3353.50,-1
3352.20,0
3350.91,-0
3349.61,-1
3348.31,-0
3347.02,-0
3345.72,-0
3344.43,-1
3343.13,-1
3341.83,-1
3340.54,-0
3339.24,-1
3337.94,0
3336.65,0
3335.35,0
3334.05,-0
3332.76,0
3331.46,-1
3330.16,-1
3328.87,-0
3327.57,-0
3326.27,-0
3324.98,0
3323.68,-0
3322.39,-1
3321.09,0
3319.79,-0
3318.50,-1
3317.20,-0
3315.90,-0
3314.61,0
3313.31,-1
3312.01,-0
3310.72,-2
3309.42,0
3308.12,-0
3306.83,-1
3305.53,0
3304.24,-1
3302.94,-1
3301.64,-0
3300.35,-1
3299.05,-1
3297.75,1
3296.46,-1
3295.16,-1
3293.86,0
3292.57,0
3291.27,-1
3289.97,-0
3288.68,0
3287.38,-1
3286.08,0
3284.79,0
3283.49,-1
3282.20,-0
3280.90,-0
3279.60,-0
3278.31,-1
3277.01,-1
3275.71,-1
3274.42,-1
3273.12,-1
3271.82,-1
3270.53,-1
3269.23,-0
3267.93,0
3266.64,0
3265.34,-0
3264.04,0
3262.75,-0
3261.45,-1
3260.16,-1
3258.86,-1
3257.56,-0
3256.27,-1
3254.97,-2
3253.67,-3
3252.38,-1
3251.08,-1
3249.78,-1
3248.49,-2
3247.19,-1
3245.89,-1
3244.60,-1
3243.30,-1
3242.00,0
3240.71,-1
3239.41,-1
3238.12,-1
3236.82,-1
3235.52,-2
3234.23,-1
3232.93,-1
3231.63,-1
3230.34,0
3229.04,-0
3227.74,0
3226.45,-0
3225.15,-1
3223.85,-1
3222.56,-1
3221.26,-1
3219.96,-1
3218.67,-1
3217.37,-0
3216.08,-1
3214.78,0
3213.48,-1
3212.19,-1
3210.89,-1
3209.59,-0
3208.30,0
3207.00,-0
3205.70,-1
3204.41,-1
3203.11,0
3201.81,-1
3200.52,0
3199.22,-1
3197.92,-0
3196.63,-0
3195.33,-0
3194.04,-1
3192.74,-1
3191.44,-1
3190.15,-1
3188.85,1
3187.55,1
3186.26,-0
3184.96,-0
3183.66,0
3182.37,-0
3181.07,-2
3179.77,-2
3178.48,-0
3177.18,-1
3175.88,-0
3174.59,0
3173.29,-0
3172.00,1
3170.70,1
3169.40,-2
3168.11,1
3166.81,-1
3165.51,1
3164.22,1
3162.92,0
3161.62,-0
3160.33,-1
3159.03,-1
3157.73,0
3156.44,1
3155.14,-1
3153.84,-1
3152.55,0
3151.25,0
3149.96,1
3148.66,0
3147.36,1
3146.07,2
3144.77,-0
3143.47,-0
3142.18,1
3140.88,1
3139.58,1
3138.29,1
3136.99,-0
3135.69,1
3134.40,0
3133.10,1
3131.80,1
3130.51,0
3129.21,1
3127.92,1
3126.62,-0
3125.32,1
3124.03,1
3122.73,1
3121.43,1
3120.14,0
3118.84,1
3117.54,-0
3116.25,0
3114.95,1
3113.65,1
3112.36,-1
3111.06,-0
3109.76,-0
3108.47,-1
3107.17,2
3105.88,1
3104.58,1
3103.28,0
3101.99,0
3100.69,-1
3099.39,1
3098.10,0
3096.80,-0
3095.50,0
3094.21,-1
3092.91,1
3091.61,-1
3090.32,1
3089.02,1
3087.72,1
3086.43,-0
3085.13,1
3083.84,-1
3082.54,-1
3081.24,-0
3079.95,-0
3078.65,1
3077.35,-0
3076.06,-1
3074.76,-0
3073.46,-1
3072.17,0
3070.87,1
3069.57,-0
3068.28,-0
3066.98,-0
3065.68,-0
3064.39,1
3063.09,-1
3061.80,-1
3060.50,1
3059.20,-0
3057.91,-2
3056.61,0
3055.31,-2
3054.02,1
3052.72,-0
3051.42,-2
3050.13,-1
3048.83,-1
3047.53,-2
3046.24,-2
3044.94,1
3043.65,-1
3042.35,0
3041.05,-1
3039.76,1
3038.46,2
3037.16,-1
3035.87,-1
3034.57,1
3033.27,3
3031.98,2
3030.68,0
3029.38,-0
3028.09,0
3026.79,-1
3025.49,1
3024.20,0
3022.90,-0
3021.61,1
3020.31,-1
3019.01,-0
3017.72,-1
3016.42,-1
3015.12,-1
3013.83,1
3012.53,-0
3011.23,1
3009.94,-1
3008.64,-2
3007.34,-0
3006.05,1
3004.75,-0
3003.45,1
3002.16,-2
3000.86,-1
2999.57,-1
2998.27,-1
2996.97,-2
2995.68,-0
2994.38,1
2993.08,1
2991.79,-0
2990.49,1
2989.19,-1
2987.90,-1
2986.60,0
2985.30,-1
2984.01,0
2982.71,-0
2981.41,-0
2980.12,-1
2978.82,-0
2977.53,-1
2976.23,-0
2974.93,-1
2973.64,-0
2972.34,0
2971.04,1
2969.75,-1
2968.45,-0
2967.15,1
2965.86,0
2964.56,-2
2963.26,0
2961.97,-1
2960.67,-0
2959.37,-1
2958.08,-1
2956.78,-0
2955.49,1
2954.19,-0
2952.89,0
2951.60,-1
2950.30,-2
2949.00,1
2947.71,-1
2946.41,-1
2945.11,1
2943.82,-1
2942.52,-3
2941.22,-2
2939.93,-1
2938.63,-3
2937.33,-1
2936.04,-0
2934.74,-3
2933.45,-0
2932.15,-0
2930.85,-2
2929.56,-1
2928.26,-0
2926.96,-1
2925.67,-1
2924.37,-1
2923.07,-1
2921.78,-1
2920.48,-1
2919.18,-1
2917.89,-0
2916.59,-2
2915.29,-1
2914.00,-1
2912.70,-2
2911.41,-1
2910.11,-2
2908.81,-2
2907.52,-1
2906.22,-1
2904.92,-2
2903.63,-1
2902.33,0
2901.03,-3
2899.74,-1
2898.44,-1
2897.14,0
2895.85,-2
2894.55,0
2893.25,0
2891.96,-0
2890.66,2
2889.37,-0
2888.07,-0
2886.77,1
2885.48,2
2884.18,2
2882.88,-0
2881.59,1
2880.29,2
2878.99,-1
2877.70,0
2876.40,3
2875.10,2
2873.81,1
2872.51,1
2871.21,1
2869.92,0
2868.62,1
2867.33,2
2866.03,1
2864.73,2
2863.44,1
2862.14,1
2860.84,2
2859.55,1
2858.25,1
2856.95,0
2855.66,-1
2854.36,1
2853.06,3
2851.77,2
2850.47,1
2849.17,-0
2847.88,-0
2846.58,-0
2845.29,2
2843.99,0
2842.69,0
2841.40,-1
2840.10,-0
2838.80,1
2837.51,1
2836.21,-0
2834.91,-0
2833.62,-0
2832.32,1
2831.02,-0
2829.73,2
2828.43,1
2827.13,2
2825.84,1
2824.54,1
2823.25,-0
2821.95,3
2820.65,2
2819.36,3
2818.06,3
2816.76,3
2815.47,1
2814.17,2
2812.87,2
2811.58,1
2810.28,0
2808.98,3
2807.69,3
2806.39,3
2805.09,3
2803.80,-0
2802.50,2
2801.21,3
2799.91,0
2798.61,1
2797.32,3
2796.02,2
2794.72,3
2793.43,3
2792.13,3
2790.83,4
2789.54,4
2788.24,5
2786.94,1
2785.65,5
2784.35,0
2783.06,2
2781.76,2
2780.46,2
2779.17,4
2777.87,1
2776.57,3
2775.28,3
2773.98,3
2772.68,3
2771.39,2
2770.09,3
2768.79,2
2767.50,3
2766.20,4
2764.90,1
2763.61,3
2762.31,1
2761.02,3
2759.72,2
2758.42,2
2757.13,2
2755.83,2
2754.53,4
2753.24,2
2751.94,3
2750.64,3
2749.35,2
2748.05,2
2746.75,1
2745.46,3
2744.16,2
2742.86,2
2741.57,0
2740.27,1
2738.98,3
2737.68,1
2736.38,2
2735.09,2
2733.79,3
2732.49,1
2731.20,-1
2729.90,2
2728.60,2
2727.31,3
2726.01,1
2724.71,1
2723.42,0
2722.12,3
2720.82,1
2719.53,2
2718.23,1
2716.94,3
2715.64,3
2714.34,2
2713.05,5
2711.75,0
2710.45,2
2709.16,2
2707.86,4
2706.56,3
2705.27,-0
2703.97,0
2702.67,2
2701.38,4
2700.08,4
2698.78,2
2697.49,2
2696.19,2
2694.90,1
2693.60,3
2692.30,2
2691.01,1
2689.71,3
2688.41,4
2687.12,3
2685.82,2
2684.52,1
2683.23,1
2681.93,2
2680.63,3
2679.34,2
2678.04,0
2676.74,1
2675.45,3
2674.15,2
2672.86,3
2671.56,4
2670.26,3
2668.97,2
2667.67,4
2666.37,3
2665.08,2
2663.78,2
2662.48,-0
2661.19,1
2659.89,2
2658.59,2
2657.30,2
2656.00,1
2654.70,3
2653.41,1
2652.11,2
2650.82,2
2649.52,1
2648.22,2
2646.93,2
2645.63,3
2644.33,1
2643.04,5
2641.74,-0
2640.44,1
2639.15,3
2637.85,1
2636.55,3
2635.26,2
2633.96,-0
2632.66,6
2631.37,4
2630.07,1
2628.78,2
2627.48,1
2626.18,4
2624.89,2
2623.59,2
2622.29,3
2621.00,4
2619.70,4
2618.40,5
2617.11,4
2615.81,3
2614.51,5
2613.22,4
2611.92,4
2610.62,2
2609.33,2
2608.03,-0
2606.74,3
2605.44,4
2604.14,5
2602.85,6
2601.55,2
2600.25,2
2598.96,4
2597.66,1
2596.36,0
2595.07,5
2593.77,5
2592.47,4
2591.18,5
2589.88,5
2588.58,5
2587.29,6
2585.99,4
2584.70,7
2583.40,6
2582.10,5
2580.81,8
2579.51,4
2578.21,5
2576.92,5
2575.62,5
2574.32,6
2573.03,5
2571.73,9
2570.43,4
2569.14,4
2567.84,3
2566.54,6
2565.25,4
2563.95,6
2562.66,4
2561.36,4
2560.06,0
2558.77,5
2557.47,6
2556.17,6
2554.88,3
2553.58,3
2552.28,5
2550.99,7
2549.69,3
2548.39,4
2547.10,9
2545.80,7
2544.50,4
2543.21,8
2541.91,8
2540.62,5
2539.32,6
2538.02,8
2536.73,6
2535.43,5
2534.13,5
2532.84,6
2531.54,8
2530.24,4
2528.95,7
2527.65,2
2526.35,4
2525.06,5
2523.76,-1
2522.46,0
2521.17,3
2519.87,2
2518.58,5
2517.28,5
2515.98,5
2514.69,4
2513.39,4
2512.09,5
2510.80,3
2509.50,5
2508.20,3
2506.91,7
2505.61,6
2504.31,5
2503.02,6
2501.72,3
2500.43,6
2499.13,6
2497.83,6
2496.54,2
2495.24,8
2493.94,6
2492.65,2
2491.35,6
2490.05,8
2488.76,6
2487.46,4
2486.16,6
2484.87,6
2483.57,7
2482.27,7
2480.98,7
2479.68,6
2478.39,5
2477.09,5
2475.79,4
2474.50,3
2473.20,6
2471.90,5
2470.61,5
2469.31,5
2468.01,4
2466.72,3
2465.42,4
2464.12,1
2462.83,3
2461.53,5
2460.23,3
2458.94,5
2457.64,4
2456.35,5
2455.05,4
2453.75,1
2452.46,1
2451.16,3
2449.86,2
2448.57,-0
2447.27,6
2445.97,-1
2444.68,1
2443.38,5
2442.08,2
2440.79,0
2439.49,0
2438.19,1
2436.90,2
2435.60,0
2434.31,2
2433.01,1
2431.71,0
2430.42,-0
2429.12,-0
2427.82,-2
2426.53,1
2425.23,0
2423.93,0
2422.64,-1
2421.34,-1
2420.04,-1
2418.75,-0
2417.45,-0
2416.15,3
2414.86,-1
2413.56,-1
2412.27,-1
2410.97,-3
2409.67,0
2408.38,0
2407.08,-0
2405.78,1
2404.49,-1
2403.19,-0
2401.89,1
2400.60,2
2399.30,1
2398.00,3
2396.71,1
2395.41,5
2394.11,1
2392.82,1
2391.52,-0
2390.23,1
2388.93,3
2387.63,2
2386.34,1
2385.04,3
2383.74,0
2382.45,1
2381.15,3
2379.85,4
2378.56,1
2377.26,2
2375.96,1
2374.67,-0
2373.37,1
2372.07,-0
2370.78,1
2369.48,6
2368.19,3
2366.89,2
2365.59,2
2364.30,-1
2363.00,4
2361.70,4
2360.41,-0
2359.11,-0
2357.81,-0
2356.52,-1
2355.22,1
2353.92,2
2352.63,-3
2351.33,-3
2350.03,0
2348.74,4
2347.44,0
2346.15,-1
2344.85,-1
2343.55,2
2342.26,0
2340.96,1
2339.66,-1
2338.37,-2
2337.07,-2
2335.77,1
2334.48,-0
2333.18,3
2331.88,1
2330.59,-2
2329.29,6
2327.99,-1
2326.70,2
2325.40,0
2324.11,-3
2322.81,-2
2321.51,0
2320.22,-1
2318.92,-0
2317.62,2
2316.33,1
2315.03,2
2313.73,-0
2312.44,-3
2311.14,1
2309.84,2
2308.55,1
2307.25,0
2305.95,0
2304.66,-2
2303.36,3
2302.07,-3
2300.77,2
2299.47,3
2298.18,0
2296.88,-3
2295.58,2
2294.29,-1
2292.99,-2
2291.69,4
2290.40,-2
2289.10,0
2287.80,0
2286.51,-3
2285.21,-4
2283.91,0
2282.62,-1
2281.32,-2
2280.03,-4
2278.73,0
2277.43,1
2276.14,1
2274.84,-0
2273.54,-1
2272.25,1
2270.95,-1
2269.65,-5
2268.36,-0
2267.06,-2
2265.76,-5
2264.47,-6
2263.17,-5
2261.87,-3
2260.58,-4
2259.28,-2
2257.99,-5
2256.69,-8
2255.39,1
2254.10,-4
2252.80,-2
2251.50,-0
2250.21,-2
2248.91,-1
2247.61,-1
2246.32,-4
2245.02,-4
2243.72,-3
2242.43,-2
2241.13,3
2239.84,0
2238.54,2
2237.24,-5
2235.95,-0
2234.65,-4
2233.35,-1
2232.06,-4
2230.76,-3
2229.46,-1
2228.17,2
2226.87,3
2225.57,1
2224.28,0
2222.98,4
2221.68,4
2220.39,2
2219.09,4
2217.80,3
2216.50,2
2215.20,3
2213.91,2
2212.61,1
2211.31,1
2210.02,5
2208.72,5
2207.42,-2
2206.13,-1
2204.83,1
2203.53,3
2202.24,4
2200.94,3
2199.64,4
2198.35,3
2197.05,-1
2195.76,-1
2194.46,-2
2193.16,1
2191.87,2
2190.57,-1
2189.27,-2
2187.98,-0
2186.68,1
2185.38,-1
2184.09,-3
2182.79,0
2181.49,-3
2180.20,-1
2178.90,2
2177.60,-1
2176.31,2
2175.01,-1
2173.72,-3
2172.42,-3
2171.12,-7
2169.83,-4
2168.53,0
2167.23,-2
2165.94,-0
2164.64,-4
2163.34,-5
2162.05,-5
2160.75,1
2159.45,0
2158.16,-1
2156.86,-1
2155.56,-6
2154.27,-1
2152.97,-4
2151.68,-3
2150.38,0
2149.08,-5
2147.79,-0
2146.49,-5
2145.19,-2
2143.90,-2
2142.60,-5
2141.30,-2
2140.01,-1
2138.71,-3
2137.41,-2
2136.12,4
2134.82,-2
2133.52,1
2132.23,2
2130.93,5
2129.64,3
2128.34,-2
2127.04,2
2125.75,-0
2124.45,1
2123.15,-3
2121.86,2
2120.56,5
2119.26,4
2117.97,6
2116.67,1
2115.37,5
2114.08,4
2112.78,1
2111.48,-0
2110.19,4
2108.89,1
2107.60,1
2106.30,-0
2105.00,1
2103.71,1
2102.41,4
2101.11,1
2099.82,-2
2098.52,5
2097.22,5
2095.93,-2
2094.63,3
2093.33,5
2092.04,1
2090.74,1
2089.44,0
2088.15,-2
2086.85,-2
2085.56,-1
2084.26,3
2082.96,-0
2081.67,1
2080.37,-4
2079.07,-2
2077.78,-0
2076.48,-2
2075.18,-7
2073.89,-5
2072.59,-7
2071.29,-5
2070.00,-4
2068.70,-3
2067.40,-7
2066.11,-3
2064.81,-2
2063.52,-5
2062.22,-3
2060.92,-3
2059.63,2
2058.33,-5
2057.03,1
2055.74,-3
2054.44,0
2053.14,1
2051.85,-1
2050.55,-3
2049.25,-0
2047.96,1
2046.66,-1
2045.36,5
2044.07,1
2042.77,3
2041.48,1
2040.18,5
2038.88,5
2037.59,4
2036.29,4
2034.99,5
2033.70,3
2032.40,1
2031.10,1
2029.81,-3
2028.51,2
2027.21,1
2025.92,2
2024.62,2
2023.32,6
2022.03,-1
2020.73,-1
2019.44,2
2018.14,5
2016.84,0
2015.55,5
2014.25,8
2012.95,5
2011.66,4
2010.36,2
2009.06,1
2007.77,-0
2006.47,-3
2005.17,-2
2003.88,-2
2002.58,-1
2001.28,-1
1999.99,-3
1998.69,-2
1997.40,-2
1996.10,-2
1994.80,-2
1993.51,-3
1992.21,-3
1990.91,-3
1989.62,-0
1988.32,-1
1987.02,1
1985.73,-3
1984.43,-0
1983.13,-5
1981.84,-6
1980.54,-4
1979.24,-5
1977.95,-5
1976.65,-4
1975.36,-2
1974.06,-2
1972.76,-2
1971.47,3
1970.17,1
1968.87,1
1967.58,-0
1966.28,-1
1964.98,-0
1963.69,-2
1962.39,-3
1961.09,-3
1959.80,-0
1958.50,4
1957.21,3
1955.91,5
1954.61,6
1953.32,4
1952.02,6
1950.72,4
1949.43,1
1948.13,6
1946.83,5
1945.54,5
1944.24,2
1942.94,3
1941.65,4
1940.35,5
1939.05,6
1937.76,2
1936.46,6
1935.17,4
1933.87,3
1932.57,6
1931.28,1
1929.98,3
1928.68,-1
1927.39,-0
1926.09,0
1924.79,4
1923.50,7
1922.20,4
1920.90,7
1919.61,4
1918.31,0
1917.01,-2
1915.72,-1
1914.42,-2
1913.13,-0
1911.83,0
1910.53,-3
1909.24,-2
1907.94,-3
1906.64,-5
1905.35,-1
1904.05,-0
1902.75,0
1901.46,-6
1900.16,-2
1898.86,-1
1897.57,-3
1896.27,-2
1894.97,0
1893.68,-4
1892.38,-8
1891.09,-4
1889.79,0
1888.49,-5
1887.20,-2
1885.90,0
1884.60,-0
1883.31,2
1882.01,1
1880.71,-2
1879.42,1
1878.12,2
1876.82,1
1875.53,6
1874.23,3
1872.93,0
1871.64,-3
1870.34,6
1869.05,3
1867.75,1
1866.45,-3
1865.16,1
1863.86,7
1862.56,3
1861.27,-1
1859.97,1
1858.67,5
1857.38,4
1856.08,2
1854.78,6
1853.49,8
1852.19,5
1850.89,7
1849.60,6
1848.30,4
1847.01,6
1845.71,6
1844.41,1
1843.12,3
1841.82,1
1840.52,1
1839.23,-1
1837.93,-3
1836.63,-1
1835.34,3
1834.04,3
1832.74,2
1831.45,2
1830.15,2
1828.85,1
1827.56,0
1826.26,2
1824.97,2
1823.67,1
1822.37,-4
1821.08,-9
1819.78,-1
1818.48,-6
1817.19,-2
1815.89,-2
1814.59,-4
1813.30,-1
1812.00,1
1810.70,-3
1809.41,-2
1808.11,-4
1806.81,-3
1805.52,1
1804.22,-1
1802.93,-0
1801.63,-6
1800.33,-4
1799.04,-2
1797.74,0
1796.44,-4
1795.15,-1
1793.85,-3
1792.55,-0
1791.26,-5
1789.96,-4
1788.66,-5
1787.37,-4
1786.07,-4
1784.77,-5
1783.48,-0
1782.18,1
1780.89,-1
1779.59,-1
1778.29,-1
1777.00,-1
1775.70,-1
1774.40,-2
1773.11,1
1771.81,-0
1770.51,2
1769.22,4
1767.92,2
1766.62,2
1765.33,0
1764.03,1
1762.73,5
1761.44,5
1760.14,7
1758.85,4
1757.55,-6
1756.25,2
1754.96,-1
1753.66,4
1752.36,10
1751.07,8
1749.77,2
1748.47,5
1747.18,7
1745.88,3
1744.58,1
1743.29,2
1741.99,3
1740.69,4
1739.40,-2
1738.10,-0
1736.81,-1
1735.51,-3
1734.21,-6
1732.92,-5
1731.62,-1
1730.32,-1
1729.03,-1
1727.73,-1
1726.43,-3
1725.14,-2
1723.84,1
1722.54,0
1721.25,0
1719.95,-0
1718.65,3
1717.36,1
1716.06,5
1714.77,4
1713.47,2
1712.17,0
1710.88,1
1709.58,4
1708.28,2
1706.99,3
1705.69,0
1704.39,5
1703.10,8
1701.80,12
1700.50,9
1699.21,14
1697.91,14
1696.62,11
1695.32,10
1694.02,12
1692.73,12
1691.43,11
1690.13,10
1688.84,14
1687.54,12
1686.24,11
1684.95,13
1683.65,18
1682.35,13
1681.06,8
1679.76,14
1678.46,20
1677.17,16
1675.87,14
1674.58,18
1673.28,20
1671.98,18
1670.69,15
1669.39,16
1668.09,19
1666.80,12
1665.50,18
1664.20,22
1662.91,19
1661.61,19
1660.31,19
1659.02,20
1657.72,18
1656.42,15
1655.13,22
1653.83,22
1652.54,22
1651.24,21
1649.94,20
1648.65,20
1647.35,19
1646.05,22
1644.76,26
1643.46,23
1642.16,28
1640.87,22
1639.57,29
1638.27,29
1636.98,28
1635.68,28
1634.38,26
1633.09,28
1631.79,34
1630.50,34
1629.20,36
1627.90,36
1626.61,36
1625.31,34
1624.01,37
1622.72,39
1621.42,40
1620.12,46
1618.83,49
1617.53,47
1616.23,49
1614.94,49
1613.64,46
1612.34,46
1611.05,54
1609.75,52
1608.46,53
1607.16,57
1605.86,62
1604.57,67
1603.27,68
1601.97,64
1600.68,69
1599.38,71
1598.08,68
1596.79,72
1595.49,72
1594.19,73
1592.90,75
1591.60,78
1590.30,83
1589.01,85
1587.71,85
1586.42,85
1585.12,88
1583.82,90
1582.53,90
1581.23,92
1579.93,93
1578.64,92
1577.34,92
1576.04,94
1574.75,93
1573.45,97
1572.15,97
1570.86,97
1569.56,98
1568.26,93
1566.97,91
1565.67,96
1564.38,97
1563.08,97
1561.78,97
1560.49,96
1559.19,96
1557.89,98
1556.60,99
1555.30,97
1554.00,96
1552.71,97
1551.41,99
1550.11,95
1548.82,91
1547.52,92
1546.22,93
1544.93,97
1543.63,96
1542.34,98
1541.04,99
1539.74,93
1538.45,95
1537.15,95
1535.85,100
1534.56,99
1533.26,95
1531.96,96
1530.67,98
1529.37,99
1528.07,97
1526.78,92
1525.48,100
1524.18,102
1522.89,105
1521.59,98
1520.30,100
1519.00,100
1517.70,96
1516.41,99
1515.11,100
1513.81,104
1512.52,102
1511.22,102
1509.92,106
1508.63,104
1507.33,105
1506.03,104
1504.74,96
1503.44,96
1502.14,105
1500.85,100
1499.55,97
1498.26,105
1496.96,105
1495.66,101
1494.37,101
1493.07,102
1491.77,104
1490.48,106
1489.18,97
1487.88,103
1486.59,99
1485.29,102
1483.99,107
1482.70,104
1481.40,105
1480.10,106
1478.81,105
1477.51,106
1476.22,102
1474.92,97
1473.62,100
1472.33,106
1471.03,104
1469.73,98
1468.44,99
1467.14,105
1465.84,102
1464.55,105
1463.25,111
1461.95,107
1460.66,99
1459.36,102
1458.06,104
1456.77,105
1455.47,100
1454.18,104
1452.88,104
1451.58,101
1450.29,105
1448.99,110
1447.69,104
1446.40,103
1445.10,104
1443.80,103
1442.51,103
1441.21,104
1439.91,105
1438.62,108
1437.32,105
1436.02,106
1434.73,113
1433.43,109
1432.14,102
1430.84,104
1429.54,110
1428.25,108
1426.95,112
1425.65,113
1424.36,113
1423.06,119
1421.76,116
1420.47,115
1419.17,119
1417.87,116
1416.58,121
1415.28,122
1413.99,117
1412.69,120
1411.39,125
1410.10,125
1408.80,124
1407.50,128
1406.21,131
1404.91,124
1403.61,125
1402.32,126
1401.02,126
1399.72,127
1398.43,127
1397.13,132
1395.83,134
1394.54,132
1393.24,131
1391.95,131
1390.65,131
1389.35,132
1388.06,135
1386.76,133
1385.46,142
1384.17,145
1382.87,138
1381.57,136
1380.28,142
1378.98,146
1377.68,143
1376.39,146
1375.09,151
1373.79,149
1372.50,145
1371.20,143
1369.91,142
1368.61,140
1367.31,138
1366.02,147
1364.72,149
1363.42,147
1362.13,145
1360.83,147
1359.53,154
1358.24,150
1356.94,150
1355.64,147
1354.35,152
1353.05,158
1351.75,153
1350.46,144
1349.16,153
1347.87,147
1346.57,153
1345.27,153
1343.98,152
1342.68,152
1341.38,153
1340.09,158
1338.79,151
1337.49,153
1336.20,156
1334.90,156
1333.60,153
1332.31,150
1331.01,155
1329.71,164
1328.42,160
1327.12,158
1325.83,160
1324.53,160
1323.23,155
1321.94,150
1320.64,147
1319.34,157
1318.05,161
1316.75,161
1315.45,162
1314.16,163
1312.86,159
1311.56,155
1310.27,154
1308.97,152
1307.67,150
1306.38,151
1305.08,153
1303.79,147
1302.49,150
1301.19,145
1299.90,149
1298.60,154
1297.30,154
1296.01,152
1294.71,144
1293.41,148
1292.12,144
1290.82,143
1289.52,142
1288.23,140
1286.93,141
1285.63,137
1284.34,135
1283.04,136
1281.75,139
1280.45,138
1279.15,134
1277.86,133
1276.56,133
1275.26,128
1273.97,130
1272.67,130
1271.37,130
1270.08,136
1268.78,125
1267.48,122
1266.19,128
1264.89,125
1263.59,120
1262.30,122
1261.00,125
1259.71,116
1258.41,114
1257.11,112
1255.82,112
1254.52,114
1253.22,117
1251.93,115
1250.63,106
1249.33,102
1248.04,106
1246.74,108
1245.44,106
1244.15,111
1242.85,104
1241.55,108
1240.26,105
1238.96,103
1237.67,106
1236.37,104
1235.07,98
1233.78,103
1232.48,97
1231.18,95
1229.89,95
1228.59,91
1227.29,100
1226.00,94
1224.70,92
1223.40,95
1222.11,91
1220.81,83
1219.51,86
1218.22,90
1216.92,88
1215.63,86
1214.33,83
1213.03,80
1211.74,82
1210.44,87
1209.14,83
1207.85,81
1206.55,78
1205.25,79
1203.96,84
1202.66,76
1201.36,79
1200.07,79
1198.77,75
1197.47,71
1196.18,70
1194.88,73
1193.59,73
1192.29,66
1190.99,67
1189.70,68
1188.40,60
1187.10,63
1185.81,65
1184.51,62
1183.21,61
1181.92,61
1180.62,57
1179.32,62
1178.03,58
1176.73,64
1175.43,60
1174.14,53
1172.84,59
1171.55,62
1170.25,52
1168.95,48
1167.66,51
1166.36,52
1165.06,49
1163.77,52
1162.47,50
1161.17,54
1159.88,50
1158.58,46
1157.28,51
1155.99,45
1154.69,48
1153.40,39
1152.10,42
1150.80,48
1149.51,40
1148.21,45
1146.91,45
1145.62,38
1144.32,33
1143.02,33
1141.73,31
1140.43,29
1139.13,34
1137.84,37
1136.54,32
1135.24,26
1133.95,30
1132.65,25
1131.36,23
1130.06,29
1128.76,28
1127.47,17
1126.17,20
1124.87,22
1123.58,25
1122.28,21
1120.98,16
1119.69,16
1118.39,15
1117.09,18
1115.80,21
1114.50,20
1113.20,15
1111.91,15
1110.61,20
1109.32,21
1108.02,18
1106.72,15
1105.43,14
1104.13,17
1102.83,20
1101.54,21
1100.24,19
1098.94,16
1097.65,13
1096.35,12
1095.05,16
1093.76,16
1092.46,17
1091.16,19
1089.87,16
1088.57,15
1087.28,15
1085.98,12
1084.68,10
1083.39,9
1082.09,10
1080.79,7
1079.50,13
1078.20,17
1076.90,14
1075.61,6
1074.31,11
1073.01,8
1071.72,6
1070.42,4
1069.12,1
1067.83,9
1066.53,6
1065.24,6
1063.94,5
1062.64,4
1061.35,7
1060.05,10
1058.75,11
1057.46,2
1056.16,-2
1054.86,5
1053.57,-4
1052.27,2
1050.97,4
1049.68,3
1048.38,2
1047.08,2
1045.79,-1
1044.49,-12
1043.20,-10
1041.90,-1
1040.60,-2
1039.31,-1
1038.01,-8
1036.71,-7
1035.42,-3
1034.12,-2
1032.82,-7
1031.53,2
1030.23,3
1028.93,-4
1027.64,-9
1026.34,-1
1025.04,3
1023.75,-1
1022.45,-2
1021.16,-0
1019.86,-0
1018.56,1
1017.27,-1
1015.97,-2
1014.67,-2
1013.38,-1
1012.08,-3
1010.78,0
1009.49,-3
1008.19,-2
1006.89,4
1005.60,-1
1004.30,3
1003.00,0
1001.71,0
1000.41,3
999.12,-6
997.82,-5
996.52,1
995.23,4
993.93,4
992.63,2
991.34,5
990.04,2
988.74,2
987.45,5
986.15,4
984.85,-0
983.56,-1
982.26,1
980.96,2
979.67,2
978.37,4
977.08,1
975.78,-1
974.48,-2
973.19,-4
971.89,0
970.59,-2
969.30,-0
968.00,-1
966.70,-8
965.41,3
964.11,0
962.81,-5
961.52,-5
960.22,0
958.92,-3
957.63,-3
956.33,-1
955.04,0
953.74,1
952.44,1
951.15,-1
949.85,2
948.55,4
947.26,-1
945.96,-2
944.66,-3
943.37,3
942.07,6
940.77,-2
939.48,2
938.18,-2
936.88,-9
935.59,-7
934.29,6
933.00,5
931.70,2
930.40,-2
929.11,-5
927.81,-5
926.51,0
925.22,5
923.92,3
922.62,-2
921.33,-1
920.03,-8
918.73,-1
917.44,6
916.14,8
914.84,4
913.55,1
912.25,0
910.96,-3
909.66,-7
908.36,-5
907.07,-4
905.77,-5
904.47,-3
903.18,0
901.88,-6
900.58,1
899.29,0
897.99,-1
896.69,1
895.40,-2
894.10,-4
892.80,-0
891.51,1
890.21,-6
888.92,-5
887.62,-8
886.32,-4
885.03,2
883.73,0
882.43,-1
881.14,-6
879.84,-3
878.54,2
877.25,-4
875.95,0
874.65,1
873.36,-2
872.06,-2
870.77,5
869.47,-3
868.17,-9
866.88,-8
865.58,-0
864.28,2
862.99,-2
861.69,-3
860.39,0
859.10,0
857.80,1
856.50,1
855.21,5
853.91,8
852.61,4
851.32,-0
850.02,-1
848.73,2
847.43,7
846.13,3
844.84,2
843.54,5
842.24,7
840.95,4
839.65,1
838.35,0
837.06,0
835.76,0
834.46,2
833.17,0
831.87,2
830.57,2
829.28,-3
827.98,2
826.69,1
825.39,-3
824.09,-4
822.80,-2
821.50,-2
820.20,2
818.91,6
817.61,6
816.31,1
815.02,-3
813.72,-1
812.42,2
811.13,1
809.83,-7
808.53,-5
807.24,-0
805.94,-0
804.65,-8
803.35,-7
802.05,-5
800.76,-1
799.46,7
798.16,-2
796.87,-1
795.57,2
794.27,1
792.98,-4
791.68,1
790.38,2
789.09,0
787.79,0
786.49,-4
785.20,-3
783.90,-1
782.61,-1
781.31,-4
780.01,1
778.72,3
777.42,4
776.12,7
774.83,-2
773.53,-5
772.23,-7
770.94,-10
769.64,2
768.34,-5
767.05,-3
765.75,2
764.45,-4
763.16,-6
761.86,-7
760.57,-6
759.27,-3
757.97,-2
756.68,-6
755.38,-7
754.08,-2
752.79,4
751.49,-3
750.19,-4
748.90,-2
747.60,0
746.30,-6
745.01,-7
743.71,-5
742.41,-4
741.12,-11
739.82,-11
738.53,-6
737.23,-3
735.93,-5
734.64,0
733.34,-3
732.04,-7
730.75,-3
729.45,-3
728.15,-5
726.86,-5
725.56,-3
724.26,-7
722.97,-6
721.67,-4
720.37,-3
719.08,-0
717.78,-3
716.49,-5
715.19,-4
713.89,-3
712.60,-4
711.30,-6
710.00,-8
708.71,-8
707.41,-1
706.11,-1
704.82,-3
703.52,-3
702.22,3
700.93,-3
699.63,-13
698.33,-16
697.04,-1
695.74,6
694.45,5
693.15,-1
691.85,-9
690.56,-11
689.26,-9
687.96,-6
686.67,-3
685.37,2
684.07,1
682.78,3
681.48,4
680.18,-6
678.89,-5
677.59,-2
676.29,-2
675.00,-8
673.70,-2
672.41,-0
671.11,-1
669.81,-1
668.52,-2
667.22,-5
665.92,-6
664.63,-4
663.33,-1
662.03,-6
660.74,-8
659.44,-2
658.14,1
656.85,-5
655.55,-6
654.25,-5
652.96,-10
651.66,-5
650.37,-5
649.07,-8
647.77,-7
646.48,-5
645.18,-4
643.88,-8
642.59,-16
641.29,-9
639.99,-7
638.70,-8
637.40,-8
636.10,-7
634.81,-7
633.51,-9
632.21,-10
630.92,-1
629.62,-4
628.33,-6
627.03,0
625.73,4
624.44,-3
623.14,-8
621.84,-5
620.55,-3
619.25,-3
617.95,1
616.66,4
615.36,-6
614.06,-5
612.77,-2
611.47,-0
610.18,3
608.88,1
607.58,-2
606.29,-4
604.99,-9
603.69,-7
602.40,-6
601.10,-4
599.80,5
598.51,7
597.21,5
595.91,2
594.62,3
593.32,4
592.02,4
590.73,4
589.43,3
588.14,3
586.84,2
585.54,-1
584.25,-6
582.95,-7
581.65,-5
580.36,-3
579.06,-7
577.76,-7
576.47,-12
575.17,-16
573.87,-9
572.58,-6
571.28,-7
569.98,-8
568.69,-1
567.39,1
566.10,6
564.80,11
563.50,8
562.21,6
560.91,5
559.61,5
558.32,2
557.02,10
555.72,9
554.43,-2
553.13,-9
551.83,-6
550.54,0
549.24,4
547.94,-3
546.65,-2
545.35,3
544.06,8
542.76,10
541.46,3
540.17,2
538.87,10
537.57,9
536.28,3
534.98,2
533.68,8
532.39,0
531.09,1
529.79,3
528.50,3
527.20,6
525.90,2
524.61,-3
523.31,-3
522.02,1
520.72,-6
519.42,-11
518.13,-1
516.83,-6
515.53,-4
514.24,-1
512.94,-8
511.64,-11
510.35,-8
509.05,-3
507.75,-9
506.46,-6
505.16,-9
503.86,-15
502.57,-1
501.27,-3
499.98,-5
498.68,-3
497.38,-4
496.09,-3
494.79,-1
493.49,3
492.20,8
490.90,7
489.60,8
488.31,18
487.01,17
485.71,20
484.42,25
483.12,29
481.82,25
480.53,29
479.23,37
477.94,32
476.64,22
475.34,22
474.05,29
472.75,23
471.45,20
470.16,19
468.86,19
467.56,23
466.27,23
464.97,20
463.67,15
462.38,16
461.08,19
459.78,22
458.49,21
457.19,21
455.90,23
454.60,26
453.30,30
452.01,24
450.71,23
449.41,30
448.12,25
446.82,24
445.52,29
444.23,39
442.93,43
441.63,36
440.34,27
439.04,21
437.74,19
436.45,19
435.15,21
433.86,30
432.56,29
431.26,27
429.97,27
428.67,27
427.37,29
426.08,29
424.78,24
423.48,14
422.19,16
420.89,25
419.59,32
418.30,36
417.00,43
415.70,52
414.41,59
413.11,50
411.82,43
410.52,50
409.22,50
407.93,55
406.63,61
405.33,56
404.04,54
402.74,48
401.44,39
400.15,40
398.85,42
397.55,38
396.26,30
394.96,40
393.66,38
392.37,30
391.07,31
389.78,31
388.48,32
387.18,34
385.89,31
384.59,24
383.29,19
382.00,22
380.70,22
379.40,21
378.11,24
376.81,34
375.51,28
374.22,25
372.92,29
371.62,33
370.33,32
369.03,28
367.74,23
366.44,18
365.14,16
363.85,16
362.55,8
361.25,4
359.96,6
358.66,13
357.36,13
356.07,15
354.77,16
353.47,13
352.18,9
350.88,8
349.59,8
348.29,-5
346.99,2
345.70,9
344.40,-4
343.10,-2
341.81,-0
340.51,0
339.21,2
337.92,-2
336.62,-4
335.32,0
334.03,3
332.73,1
331.43,-2
330.14,-2
328.84,4
327.55,8
326.25,5
324.95,3
323.66,0
322.36,-2
321.06,-1
319.77,1
318.47,-2
317.17,-10
315.88,-16
314.58,-3
313.28,9
311.99,-5
310.69,-6
309.39,-6
308.10,-6
306.80,-3
305.51,-2
304.21,-2
302.91,-2
301.62,-10
300.32,-8
299.02,1
297.73,-0
296.43,-3
295.13,-4
293.84,0
292.54,-4
291.24,0
289.95,10
288.65,-1
287.35,-6
286.06,-7
284.76,-6
283.47,-4
282.17,-5
280.87,-6
279.58,-5
278.28,0
276.98,3
275.69,1
274.39,-3
273.09,-1
271.80,6
270.50,0
269.20,3
267.91,7
266.61,3
265.31,5
264.02,6
262.72,4
261.43,0
260.13,-5
258.83,-8
257.54,-3
256.24,-4
254.94,-5
253.65,-6
252.35,-3
251.05,-3
249.76,-3
248.46,-1
247.16,2
245.87,3
244.57,0
243.27,-3
241.98,-6
240.68,-8
239.39,-10
238.09,-15
236.79,-15
235.50,-8
234.20,-7
232.90,-3
231.61,-0
230.31,-5
229.01,-7
227.72,-6
226.42,-2
225.12,-5
223.83,-11
222.53,-17
221.23,-10
219.94,-9
218.64,-11
217.35,-10
216.05,-15
214.75,-18
213.46,-11
212.16,-15
210.86,-17
209.57,-17
208.27,-15
206.97,-19
205.68,-23
204.38,-22
203.08,-25
201.79,-26
200.49,-21
