Created As Omnic File,BIOL 007
Raman Shift / cm-1,INT
3699.66,1
3698.36,1
3697.06,2
3695.77,1
3694.47,0
3693.18,1
3691.88,1
3690.58,0
3689.29,1
3687.99,-0
3686.69,1
3685.40,1
3684.10,1
3682.80,1
3681.51,1
3680.21,1
3678.91,1
3677.62,1
3676.32,1
3675.02,1
3673.73,1
3672.43,0
3671.14,1
3669.84,1
3668.54,1
3667.25,1
3665.95,1
3664.65,1
3663.36,1
3662.06,1
3660.76,1
3659.47,1
3658.17,2
3656.87,2
3655.58,2
3654.28,1
3652.98,1
3651.69,1
3650.39,1
3649.10,1
3647.80,1
3646.50,1
3645.21,1
3643.91,1
3642.61,2
3641.32,0
3640.02,1
3638.72,1
3637.43,1
3636.13,1
3634.83,0
3633.54,1
3632.24,0
3630.94,2
3629.65,1
3628.35,2
3627.06,1
3625.76,2
3624.46,1
3623.17,2
3621.87,1
3620.57,1
3619.28,1
3617.98,1
3616.68,2
3615.39,2
3614.09,1
3612.79,1
3611.50,1
3610.20,1
3608.90,2
3607.61,1
3606.31,1
3605.02,1
3603.72,1
3602.42,0
3601.13,1
3599.83,1
3598.53,1
3597.24,2
3595.94,1
3594.64,1
3593.35,1
3592.05,1
3590.75,2
3589.46,1
3588.16,1
3586.87,1
3585.57,1
3584.27,1
3582.98,2
3581.68,3
3580.38,5
3579.09,6
3577.79,6
3576.49,6
3575.20,3
3573.90,2
3572.60,1
3571.31,1
3570.01,1
3568.71,1
3567.42,2
3566.12,1
3564.83,1
3563.53,1
3562.23,0
3560.94,1
3559.64,0
3558.34,1
3557.05,1
3555.75,0
3554.45,1
3553.16,1
3551.86,1
3550.56,0
3549.27,1
3547.97,1
3546.67,1
3545.38,1
3544.08,1
3542.79,1
3541.49,1
3540.19,1
3538.90,0
3537.60,1
3536.30,1
3535.01,0
3533.71,1
3532.41,0
3531.12,1
3529.82,1
3528.52,1
3527.23,1
3525.93,1
3524.63,1
3523.34,0
3522.04,0
3520.75,1
3519.45,1
3518.15,1
3516.86,1
3515.56,1
3514.26,0
3512.97,1
3511.67,1
3510.37,1
3509.08,1
3507.78,1
3506.48,1
3505.19,1
3503.89,1
3502.59,1
3501.30,1
3500.00,1
3498.71,1
3497.41,1
3496.11,1
3494.82,1
3493.52,1
3492.22,-0
3490.93,1
3489.63,0
3488.33,1
3487.04,0
3485.74,0
3484.44,0
3483.15,0
3481.85,-0
3480.55,-0
3479.26,-0
3477.96,1
3476.67,-1
3475.37,0
3474.07,-0
3472.78,0
3471.48,-1
3470.18,0
3468.89,0
3467.59,0
3466.29,-0
3465.00,-1
3463.70,-0
3462.40,0
3461.11,0
3459.81,-0
3458.51,-0
3457.22,-0
3455.92,0
3454.63,1
3453.33,-0
3452.03,-0
3450.74,-0
3449.44,-0
3448.14,-1
3446.85,-0
3445.55,-1
3444.25,1
3442.96,0
3441.66,0
3440.36,-1
3439.07,-0
3437.77,-1
3436.47,0
3435.18,-1
3433.88,-1
3432.59,-1
3431.29,0
3429.99,-1
3428.70,-0
3427.40,-0
3426.10,-0
3424.81,-1
3423.51,-0
3422.21,-1
3420.92,-0
3419.62,-0
3418.32,0
3417.03,-0
3415.73,-0
3414.43,-1
3413.14,0
3411.84,-0
3410.55,-0
3409.25,-0
3407.95,0
3406.66,-0
3405.36,-0
3404.06,-1
3402.77,-0
3401.47,-1
3400.17,-0
3398.88,-1
3397.58,-0
3396.28,-0
3394.99,0
3393.69,-0
3392.39,-0
3391.10,-1
3389.80,0
3388.51,-1
3387.21,-0
3385.91,-1
3384.62,-0
3383.32,-1
3382.02,-0
3380.73,-0
3379.43,0
3378.13,-0
3376.84,-0
3375.54,-0
3374.24,-0
3372.95,-0
3371.65,0
3370.35,-1
3369.06,-0
3367.76,-1
3366.47,-0
3365.17,-1
3363.87,-0
3362.58,-0
3361.28,0
3359.98,-1
3358.69,-0
3357.39,-1
3356.09,-0
3354.80,0
3353.50,-0
3352.20,0
3350.91,-0
3349.61,-0
3348.31,-0
3347.02,-0
3345.72,-0
3344.43,0
3343.13,-1
3341.83,-0
3340.54,-1
3339.24,-1
3337.94,-0
3336.65,-0
3335.35,-0
3334.05,-0
3332.76,-0
3331.46,-0
3330.16,-0
3328.87,-0
3327.57,-1
3326.27,0
3324.98,-0
3323.68,-1
3322.39,-1
3321.09,-1
3319.79,-0
3318.50,0
3317.20,-0
3315.90,-0
3314.61,0
3313.31,-0
3312.01,-0
3310.72,-0
3309.42,-0
3308.12,-0
3306.83,-0
3305.53,-0
3304.24,0
3302.94,-1
3301.64,-0
3300.35,-0
3299.05,-1
3297.75,0
3296.46,0
3295.16,-0
3293.86,-0
3292.57,0
3291.27,-0
3289.97,-0
3288.68,0
3287.38,0
3286.08,-0
3284.79,0
3283.49,0
3282.20,-0
3280.90,-0
3279.60,1
3278.31,-0
3277.01,0
3275.71,-0
3274.42,-0
3273.12,0
3271.82,-0
3270.53,0
3269.23,-0
3267.93,-0
3266.64,0
3265.34,0
3264.04,-0
3262.75,0
3261.45,-1
3260.16,1
3258.86,-1
3257.56,0
3256.27,-0
3254.97,0
3253.67,0
3252.38,-0
3251.08,0
3249.78,0
3248.49,-0
3247.19,-1
3245.89,-0
3244.60,-0
3243.30,0
3242.00,-0
3240.71,0
3239.41,-0
3238.12,0
3236.82,-0
3235.52,0
3234.23,-0
3232.93,0
3231.63,-0
3230.34,0
3229.04,-0
3227.74,0
3226.45,-0
3225.15,-0
3223.85,0
3222.56,0
3221.26,1
3219.96,0
3218.67,1
3217.37,0
3216.08,1
3214.78,0
3213.48,-0
3212.19,0
3210.89,0
3209.59,-0
3208.30,-0
3207.00,-0
3205.70,-0
3204.41,-1
3203.11,-0
3201.81,-0
3200.52,0
3199.22,-1
3197.92,-0
3196.63,-1
3195.33,-0
3194.04,0
3192.74,-0
3191.44,0
3190.15,-1
3188.85,-0
3187.55,-0
3186.26,-0
3184.96,-0
3183.66,-0
3182.37,-0
3181.07,0
3179.77,-0
3178.48,-0
3177.18,-1
3175.88,0
3174.59,-1
3173.29,-1
3172.00,-0
3170.70,0
3169.40,-1
3168.11,-0
3166.81,-0
3165.51,-0
3164.22,-0
3162.92,-0
3161.62,-0
3160.33,-0
3159.03,-0
3157.73,-0
3156.44,0
3155.14,-1
3153.84,0
3152.55,-1
3151.25,0
3149.96,-1
3148.66,0
3147.36,-1
3146.07,-0
3144.77,0
3143.47,-0
3142.18,0
3140.88,-0
3139.58,-0
3138.29,0
3136.99,-0
3135.69,-0
3134.40,-0
3133.10,0
3131.80,-1
3130.51,-0
3129.21,-1
3127.92,0
3126.62,-0
3125.32,-0
3124.03,0
3122.73,-0
3121.43,-0
3120.14,-0
3118.84,-0
3117.54,-0
3116.25,-0
3114.95,1
3113.65,-0
3112.36,-0
3111.06,0
3109.76,0
3108.47,0
3107.17,-1
3105.88,0
3104.58,-0
3103.28,0
3101.99,0
3100.69,-0
3099.39,-1
3098.10,-0
3096.80,-0
3095.50,-1
3094.21,-0
3092.91,0
3091.61,-1
3090.32,0
3089.02,-0
3087.72,-0
3086.43,-0
3085.13,-1
3083.84,0
3082.54,-0
3081.24,1
3079.95,-0
3078.65,0
3077.35,-0
3076.06,-0
3074.76,1
3073.46,-0
3072.17,0
3070.87,0
3069.57,1
3068.28,-0
3066.98,1
3065.68,1
3064.39,1
3063.09,1
3061.80,0
3060.50,1
3059.20,0
3057.91,1
3056.61,1
3055.31,2
3054.02,1
3052.72,1
3051.42,0
3050.13,1
3048.83,0
3047.53,2
3046.24,-0
3044.94,1
3043.65,1
3042.35,0
3041.05,0
3039.76,-0
3038.46,1
3037.16,1
3035.87,1
3034.57,-0
3033.27,2
3031.98,0
3030.68,0
3029.38,1
3028.09,0
3026.79,1
3025.49,1
3024.20,1
3022.90,0
3021.61,1
3020.31,-0
3019.01,0
3017.72,0
3016.42,0
3015.12,1
3013.83,0
3012.53,1
3011.23,0
3009.94,0
3008.64,0
3007.34,1
3006.05,0
3004.75,1
3003.45,0
3002.16,1
3000.86,1
2999.57,1
2998.27,1
2996.97,1
2995.68,1
2994.38,1
2993.08,2
2991.79,2
2990.49,2
2989.19,2
2987.90,2
2986.60,2
2985.30,2
2984.01,2
2982.71,3
2981.41,2
2980.12,2
2978.82,3
2977.53,3
2976.23,2
2974.93,3
2973.64,3
2972.34,3
2971.04,2
2969.75,3
2968.45,3
2967.15,4
2965.86,3
2964.56,4
2963.26,4
2961.97,3
2960.67,4
2959.37,4
2958.08,4
2956.78,4
2955.49,4
2954.19,4
2952.89,4
2951.60,4
2950.30,4
2949.00,5
2947.71,5
2946.41,4
2945.11,5
2943.82,5
2942.52,5
2941.22,6
2939.93,5
2938.63,6
2937.33,6
2936.04,6
2934.74,7
2933.45,7
2932.15,8
2930.85,7
2929.56,8
2928.26,8
2926.96,8
2925.67,9
2924.37,8
2923.07,8
2921.78,7
2920.48,8
2919.18,8
2917.89,9
2916.59,7
2915.29,8
2914.00,8
2912.70,8
2911.41,7
2910.11,7
2908.81,7
2907.52,5
2906.22,6
2904.92,5
2903.63,6
2902.33,6
2901.03,5
2899.74,5
2898.44,5
2897.14,5
2895.85,6
2894.55,5
2893.25,6
2891.96,5
2890.66,5
2889.37,5
2888.07,4
2886.77,5
2885.48,5
2884.18,4
2882.88,4
2881.59,4
2880.29,5
2878.99,4
2877.70,4
2876.40,5
2875.10,5
2873.81,5
2872.51,5
2871.21,6
2869.92,5
2868.62,5
2867.33,6
2866.03,4
2864.73,5
2863.44,5
2862.14,5
2860.84,5
2859.55,4
2858.25,4
2856.95,5
2855.66,4
2854.36,3
2853.06,3
2851.77,3
2850.47,3
2849.17,2
2847.88,2
2846.58,2
2845.29,1
2843.99,3
2842.69,2
2841.40,3
2840.10,2
2838.80,2
2837.51,2
2836.21,1
2834.91,1
2833.62,1
2832.32,0
2831.02,0
2829.73,1
2828.43,0
2827.13,0
2825.84,1
2824.54,-1
2823.25,0
2821.95,0
2820.65,0
2819.36,1
2818.06,0
2816.76,0
2815.47,-0
2814.17,-1
2812.87,-1
2811.58,-0
2810.28,1
2808.98,1
2807.69,0
2806.39,-0
2805.09,0
2803.80,0
2802.50,-0
2801.21,0
2799.91,0
2798.61,-0
2797.32,-0
2796.02,-1
2794.72,-1
2793.43,1
2792.13,-0
2790.83,-0
2789.54,-1
2788.24,0
2786.94,0
2785.65,-1
2784.35,0
2783.06,-0
2781.76,0
2780.46,-0
2779.17,0
2777.87,1
2776.57,-1
2775.28,1
2773.98,1
2772.68,1
2771.39,1
2770.09,1
2768.79,-0
2767.50,1
2766.20,-0
2764.90,-0
2763.61,1
2762.31,0
2761.02,1
2759.72,0
2758.42,-1
2757.13,1
2755.83,-0
2754.53,-0
2753.24,-0
2751.94,0
2750.64,1
2749.35,-0
2748.05,1
2746.75,-0
2745.46,0
2744.16,1
2742.86,0
2741.57,0
2740.27,0
2738.98,1
2737.68,0
2736.38,0
2735.09,-0
2733.79,0
2732.49,2
2731.20,1
2729.90,1
2728.60,1
2727.31,1
2726.01,1
2724.71,1
2723.42,1
2722.12,0
2720.82,2
2719.53,1
2718.23,1
2716.94,1
2715.64,1
2714.34,2
2713.05,1
2711.75,0
2710.45,1
2709.16,2
2707.86,2
2706.56,1
2705.27,1
2703.97,1
2702.67,2
2701.38,1
2700.08,1
2698.78,0
2697.49,1
2696.19,1
2694.90,-1
2693.60,1
2692.30,2
2691.01,1
2689.71,1
2688.41,1
2687.12,1
2685.82,1
2684.52,2
2683.23,1
2681.93,2
2680.63,2
2679.34,2
2678.04,1
2676.74,1
2675.45,2
2674.15,2
2672.86,2
2671.56,1
2670.26,1
2668.97,1
2667.67,1
2666.37,2
2665.08,2
2663.78,0
2662.48,1
2661.19,1
2659.89,1
2658.59,1
2657.30,1
2656.00,2
2654.70,2
2653.41,2
2652.11,1
2650.82,0
2649.52,1
2648.22,1
2646.93,1
2645.63,1
2644.33,1
2643.04,2
2641.74,0
2640.44,2
2639.15,1
2637.85,2
2636.55,1
2635.26,2
2633.96,1
2632.66,2
2631.37,2
2630.07,2
2628.78,1
2627.48,2
2626.18,1
2624.89,2
2623.59,1
2622.29,2
2621.00,2
2619.70,2
2618.40,1
2617.11,1
2615.81,2
2614.51,2
2613.22,2
2611.92,2
2610.62,2
2609.33,1
2608.03,2
2606.74,1
2605.44,2
2604.14,1
2602.85,2
2601.55,1
2600.25,2
2598.96,1
2597.66,2
2596.36,2
2595.07,1
2593.77,1
2592.47,1
2591.18,2
2589.88,1
2588.58,2
2587.29,2
2585.99,2
2584.70,2
2583.40,1
2582.10,2
2580.81,2
2579.51,1
2578.21,2
2576.92,2
2575.62,1
2574.32,1
2573.03,0
2571.73,1
2570.43,1
2569.14,1
2567.84,0
2566.54,1
2565.25,-0
2563.95,2
2562.66,2
2561.36,0
2560.06,1
2558.77,1
2557.47,2
2556.17,1
2554.88,1
2553.58,1
2552.28,1
2550.99,1
2549.69,2
2548.39,2
2547.10,1
2545.80,-0
2544.50,1
2543.21,2
2541.91,1
2540.62,1
2539.32,1
2538.02,0
2536.73,1
2535.43,0
2534.13,1
2532.84,1
2531.54,1
2530.24,2
2528.95,2
2527.65,1
2526.35,1
2525.06,-1
2523.76,0
2522.46,1
2521.17,0
2519.87,0
2518.58,1
2517.28,-0
2515.98,0
2514.69,0
2513.39,-1
2512.09,0
2510.80,0
2509.50,0
2508.20,1
2506.91,0
2505.61,1
2504.31,0
2503.02,1
2501.72,-0
2500.43,-0
2499.13,1
2497.83,-0
2496.54,1
2495.24,0
2493.94,-0
2492.65,0
2491.35,0
2490.05,0
2488.76,-0
2487.46,0
2486.16,-1
2484.87,0
2483.57,1
2482.27,-0
2480.98,-1
2479.68,-0
2478.39,-0
2477.09,0
2475.79,0
2474.50,-0
2473.20,-0
2471.90,-1
2470.61,-0
2469.31,-0
2468.01,0
2466.72,-1
2465.42,-1
2464.12,-1
2462.83,-0
2461.53,0
2460.23,-0
2458.94,-2
2457.64,-1
2456.35,0
2455.05,-0
2453.75,-0
2452.46,-1
2451.16,-0
2449.86,-1
2448.57,-0
2447.27,-1
2445.97,-1
2444.68,-1
2443.38,-1
2442.08,-0
2440.79,-1
2439.49,-0
2438.19,-0
2436.90,-1
2435.60,0
2434.31,-0
2433.01,-0
2431.71,0
2430.42,-1
2429.12,-1
2427.82,-1
2426.53,-1
2425.23,-1
2423.93,-0
2422.64,-1
2421.34,-1
2420.04,-1
2418.75,-0
2417.45,-0
2416.15,-0
2414.86,-0
2413.56,-1
2412.27,-0
2410.97,-0
2409.67,-0
2408.38,0
2407.08,0
2405.78,-0
2404.49,-0
2403.19,-0
2401.89,-0
2400.60,-0
2399.30,-1
2398.00,0
2396.71,-1
2395.41,-0
2394.11,-0
2392.82,-0
2391.52,0
2390.23,-2
2388.93,-0
2387.63,-0
2386.34,1
2385.04,0
2383.74,0
2382.45,1
2381.15,-0
2379.85,-0
2378.56,-0
2377.26,0
2375.96,1
2374.67,0
2373.37,1
2372.07,0
2370.78,-0
2369.48,-0
2368.19,1
2366.89,1
2365.59,1
2364.30,-1
2363.00,0
2361.70,1
2360.41,2
2359.11,2
2357.81,2
2356.52,-1
2355.22,2
2353.92,1
2352.63,-1
2351.33,1
2350.03,0
2348.74,1
2347.44,1
2346.15,1
2344.85,0
2343.55,-1
2342.26,-0
2340.96,-1
2339.66,-0
2338.37,1
2337.07,1
2335.77,0
2334.48,1
2333.18,0
2331.88,-0
2330.59,1
2329.29,1
2327.99,2
2326.70,1
2325.40,1
2324.11,2
2322.81,0
2321.51,-1
2320.22,1
2318.92,0
2317.62,-0
2316.33,0
2315.03,1
2313.73,1
2312.44,0
2311.14,0
2309.84,1
2308.55,1
2307.25,2
2305.95,2
2304.66,1
2303.36,0
2302.07,-1
2300.77,1
2299.47,1
2298.18,0
2296.88,1
2295.58,-1
2294.29,1
2292.99,0
2291.69,1
2290.40,1
2289.10,2
2287.80,2
2286.51,1
2285.21,1
2283.91,-0
2282.62,0
2281.32,0
2280.03,1
2278.73,1
2277.43,1
2276.14,1
2274.84,0
2273.54,0
2272.25,0
2270.95,1
2269.65,1
2268.36,1
2267.06,1
2265.76,0
2264.47,0
2263.17,0
2261.87,-2
2260.58,-1
2259.28,1
2257.99,-1
2256.69,-1
2255.39,-2
2254.10,0
2252.80,1
2251.50,0
2250.21,1
2248.91,1
2247.61,-1
2246.32,1
2245.02,-0
2243.72,-0
2242.43,0
2241.13,1
2239.84,1
2238.54,1
2237.24,1
2235.95,0
2234.65,-1
2233.35,-1
2232.06,0
2230.76,1
2229.46,0
2228.17,1
2226.87,-2
2225.57,-1
2224.28,-1
2222.98,0
2221.68,0
2220.39,2
2219.09,-0
2217.80,1
2216.50,-0
2215.20,0
2213.91,-1
2212.61,2
2211.31,1
2210.02,-0
2208.72,-1
2207.42,-1
2206.13,-0
2204.83,-0
2203.53,1
2202.24,1
2200.94,0
2199.64,2
2198.35,2
2197.05,-0
2195.76,0
2194.46,-1
2193.16,-1
2191.87,-0
2190.57,-1
2189.27,-0
2187.98,-1
2186.68,-1
2185.38,-0
2184.09,0
2182.79,-1
2181.49,-1
2180.20,-2
2178.90,-0
2177.60,0
2176.31,-1
2175.01,1
2173.72,0
2172.42,0
2171.12,-1
2169.83,1
2168.53,1
2167.23,1
2165.94,-1
2164.64,-1
2163.34,-2
2162.05,-1
2160.75,-1
2159.45,1
2158.16,-1
2156.86,0
2155.56,-1
2154.27,-1
2152.97,-1
2151.68,-2
2150.38,1
2149.08,0
2147.79,-0
2146.49,-1
2145.19,0
2143.90,1
2142.60,-1
2141.30,-0
2140.01,-1
2138.71,-1
2137.41,1
2136.12,1
2134.82,1
2133.52,1
2132.23,0
2130.93,1
2129.64,-0
2128.34,-1
2127.04,2
2125.75,-1
2124.45,-1
2123.15,1
2121.86,2
2120.56,2
2119.26,2
2117.97,0
2116.67,0
2115.37,-1
2114.08,-0
2112.78,-0
2111.48,1
2110.19,1
2108.89,-1
2107.60,-1
2106.30,0
2105.00,-0
2103.71,0
2102.41,0
2101.11,-1
2099.82,0
2098.52,1
2097.22,0
2095.93,-0
2094.63,0
2093.33,1
2092.04,1
2090.74,1
2089.44,2
2088.15,0
2086.85,3
2085.56,-0
2084.26,-1
2082.96,0
2081.67,-2
2080.37,-0
2079.07,-0
2077.78,-2
2076.48,-1
2075.18,-2
2073.89,-1
2072.59,-0
2071.29,-1
2070.00,-1
2068.70,-1
2067.40,0
2066.11,-0
2064.81,-0
2063.52,-2
2062.22,-2
2060.92,-2
2059.63,-2
2058.33,-1
2057.03,1
2055.74,3
2054.44,-0
2053.14,-0
2051.85,-1
2050.55,-2
2049.25,-2
2047.96,1
2046.66,2
2045.36,2
2044.07,-1
2042.77,-0
2041.48,1
2040.18,4
2038.88,-0
2037.59,2
2036.29,-3
2034.99,1
2033.70,0
2032.40,-0
2031.10,-0
2029.81,1
2028.51,1
2027.21,-0
2025.92,2
2024.62,0
2023.32,-1
2022.03,0
2020.73,-0
2019.44,-0
2018.14,2
2016.84,1
2015.55,1
2014.25,1
2012.95,2
2011.66,2
2010.36,3
2009.06,2
2007.77,1
2006.47,1
2005.17,-1
2003.88,1
2002.58,2
2001.28,0
1999.99,-0
1998.69,-1
1997.40,-1
1996.10,2
1994.80,1
1993.51,0
1992.21,1
1990.91,1
1989.62,-0
1988.32,2
1987.02,1
1985.73,2
1984.43,1
1983.13,0
1981.84,0
1980.54,3
1979.24,2
1977.95,1
1976.65,1
1975.36,2
1974.06,1
1972.76,1
1971.47,2
1970.17,1
1968.87,0
1967.58,1
1966.28,1
1964.98,3
1963.69,3
1962.39,1
1961.09,3
1959.80,4
1958.50,3
1957.21,2
1955.91,4
1954.61,4
1953.32,2
1952.02,3
1950.72,4
1949.43,4
1948.13,4
1946.83,4
1945.54,3
1944.24,3
1942.94,3
1941.65,4
1940.35,3
1939.05,3
1937.76,3
1936.46,5
1935.17,2
1933.87,5
1932.57,5
1931.28,4
1929.98,2
1928.68,4
1927.39,2
1926.09,2
1924.79,2
1923.50,5
1922.20,4
1920.90,3
1919.61,2
1918.31,1
1917.01,1
1915.72,-0
1914.42,-0
1913.13,1
1911.83,1
1910.53,1
1909.24,2
1907.94,2
1906.64,1
1905.35,2
1904.05,-1
1902.75,2
1901.46,2
1900.16,3
1898.86,2
1897.57,2
1896.27,3
1894.97,0
1893.68,-1
1892.38,0
1891.09,1
1889.79,0
1888.49,0
1887.20,1
1885.90,0
1884.60,2
1883.31,3
1882.01,1
1880.71,1
1879.42,3
1878.12,4
1876.82,3
1875.53,3
1874.23,5
1872.93,4
1871.64,0
1870.34,3
1869.05,3
1867.75,2
1866.45,2
1865.16,3
1863.86,5
1862.56,3
1861.27,4
1859.97,4
1858.67,4
1857.38,2
1856.08,1
1854.78,2
1853.49,3
1852.19,4
1850.89,2
1849.60,3
1848.30,2
1847.01,3
1845.71,2
1844.41,1
1843.12,3
1841.82,3
1840.52,4
1839.23,4
1837.93,-0
1836.63,2
1835.34,2
1834.04,1
1832.74,0
1831.45,1
1830.15,2
1828.85,-1
1827.56,-2
1826.26,0
1824.97,3
1823.67,0
1822.37,-2
1821.08,-0
1819.78,-0
1818.48,0
1817.19,1
1815.89,2
1814.59,-1
1813.30,2
1812.00,2
1810.70,0
1809.41,-1
1808.11,0
1806.81,0
1805.52,0
1804.22,1
1802.93,-0
1801.63,-0
1800.33,1
1799.04,1
1797.74,-0
1796.44,-0
1795.15,-0
1793.85,1
1792.55,1
1791.26,3
1789.96,-1
1788.66,1
1787.37,1
1786.07,-2
1784.77,-1
1783.48,-0
1782.18,-1
1780.89,-0
1779.59,1
1778.29,-0
1777.00,-1
1775.70,-1
1774.40,2
1773.11,4
1771.81,4
1770.51,3
1769.22,0
1767.92,1
1766.62,2
1765.33,1
1764.03,1
1762.73,2
1761.44,1
1760.14,-0
1758.85,1
1757.55,2
1756.25,3
1754.96,2
1753.66,3
1752.36,2
1751.07,1
1749.77,2
1748.47,1
1747.18,2
1745.88,3
1744.58,0
1743.29,-1
1741.99,1
1740.69,2
1739.40,-1
1738.10,0
1736.81,1
1735.51,0
1734.21,3
1732.92,2
1731.62,0
1730.32,-0
1729.03,-0
1727.73,-0
1726.43,2
1725.14,3
1723.84,-2
1722.54,0
1721.25,1
1719.95,-0
1718.65,1
1717.36,-1
1716.06,3
1714.77,2
1713.47,1
1712.17,2
1710.88,1
1709.58,1
1708.28,4
1706.99,5
1705.69,6
1704.39,4
1703.10,4
1701.80,7
1700.50,6
1699.21,7
1697.91,9
1696.62,8
1695.32,9
1694.02,10
1692.73,8
1691.43,10
1690.13,13
1688.84,16
1687.54,15
1686.24,15
1684.95,17
1683.65,17
1682.35,20
1681.06,20
1679.76,18
1678.46,21
1677.17,23
1675.87,21
1674.58,26
1673.28,26
1671.98,22
1670.69,26
1669.39,28
1668.09,28
1666.80,28
1665.50,29
1664.20,29
1662.91,29
1661.61,31
1660.31,32
1659.02,32
1657.72,29
1656.42,31
1655.13,31
1653.83,30
1652.54,29
1651.24,29
1649.94,27
1648.65,24
1647.35,24
1646.05,26
1644.76,27
1643.46,27
1642.16,24
1640.87,25
1639.57,22
1638.27,21
1636.98,22
1635.68,20
1634.38,18
1633.09,19
1631.79,20
1630.50,18
1629.20,17
1627.90,17
1626.61,16
1625.31,13
1624.01,13
1622.72,13
1621.42,13
1620.12,13
1618.83,15
1617.53,17
1616.23,15
1614.94,20
1613.64,19
1612.34,17
1611.05,22
1609.75,23
1608.46,25
1607.16,24
1605.86,23
1604.57,23
1603.27,22
1601.97,22
1600.68,22
1599.38,20
1598.08,19
1596.79,18
1595.49,18
1594.19,17
1592.90,16
1591.60,18
1590.30,18
1589.01,17
1587.71,17
1586.42,16
1585.12,16
1583.82,18
1582.53,17
1581.23,17
1579.93,14
1578.64,14
1577.34,18
1576.04,16
1574.75,13
1573.45,11
1572.15,13
1570.86,14
1569.56,14
1568.26,13
1566.97,11
1565.67,10
1564.38,13
1563.08,14
1561.78,12
1560.49,10
1559.19,13
1557.89,14
1556.60,14
1555.30,13
1554.00,12
1552.71,12
1551.41,13
1550.11,12
1548.82,15
1547.52,16
1546.22,13
1544.93,13
1543.63,13
1542.34,13
1541.04,16
1539.74,15
1538.45,11
1537.15,14
1535.85,11
1534.56,15
1533.26,14
1531.96,13
1530.67,11
1529.37,10
1528.07,12
1526.78,13
1525.48,8
1524.18,7
1522.89,11
1521.59,11
1520.30,11
1519.00,11
1517.70,12
1516.41,13
1515.11,11
1513.81,8
1512.52,9
1511.22,13
1509.92,11
1508.63,9
1507.33,9
1506.03,9
1504.74,8
1503.44,10
1502.14,13
1500.85,11
1499.55,7
1498.26,8
1496.96,9
1495.66,11
1494.37,12
1493.07,11
1491.77,12
1490.48,9
1489.18,15
1487.88,11
1486.59,14
1485.29,15
1483.99,10
1482.70,8
1481.40,13
1480.10,16
1478.81,13
1477.51,11
1476.22,17
1474.92,17
1473.62,16
1472.33,18
1471.03,20
1469.73,22
1468.44,21
1467.14,24
1465.84,24
1464.55,30
1463.25,32
1461.95,31
1460.66,33
1459.36,38
1458.06,39
1456.77,38
1455.47,37
1454.18,40
1452.88,46
1451.58,47
1450.29,46
1448.99,49
1447.69,51
1446.40,47
1445.10,52
1443.80,52
1442.51,52
1441.21,53
1439.91,53
1438.62,52
1437.32,51
1436.02,49
1434.73,47
1433.43,45
1432.14,40
1430.84,40
1429.54,40
1428.25,33
1426.95,33
1425.65,34
1424.36,31
1423.06,29
1421.76,30
1420.47,32
1419.17,30
1417.87,27
1416.58,32
1415.28,30
1413.99,26
1412.69,31
1411.39,30
1410.10,28
1408.80,32
1407.50,30
1406.21,31
1404.91,30
1403.61,33
1402.32,30
1401.02,27
1399.72,28
1398.43,29
1397.13,28
1395.83,27
1394.54,28
1393.24,26
1391.95,25
1390.65,24
1389.35,23
1388.06,25
1386.76,27
1385.46,26
1384.17,24
1382.87,25
1381.57,24
1380.28,24
1378.98,25
1377.68,25
1376.39,21
1375.09,26
1373.79,25
1372.50,22
1371.20,21
1369.91,22
1368.61,22
1367.31,23
1366.02,22
1364.72,22
1363.42,22
1362.13,22
1360.83,23
1359.53,26
1358.24,27
1356.94,26
1355.64,24
1354.35,28
1353.05,29
1351.75,26
1350.46,27
1349.16,33
1347.87,34
1346.57,29
1345.27,32
1343.98,33
1342.68,35
1341.38,40
1340.09,40
1338.79,39
1337.49,38
1336.20,43
1334.90,43
1333.60,41
1332.31,42
1331.01,45
1329.71,44
1328.42,41
1327.12,44
1325.83,45
1324.53,42
1323.23,41
1321.94,40
1320.64,39
1319.34,43
1318.05,46
1316.75,44
1315.45,42
1314.16,44
1312.86,43
1311.56,39
1310.27,43
1308.97,42
1307.67,41
1306.38,42
1305.08,43
1303.79,42
1302.49,44
1301.19,43
1299.90,38
1298.60,38
1297.30,44
1296.01,45
1294.71,44
1293.41,42
1292.12,41
1290.82,42
1289.52,45
1288.23,44
1286.93,39
1285.63,42
1284.34,42
1283.04,41
1281.75,44
1280.45,44
1279.15,39
1277.86,43
1276.56,41
1275.26,42
1273.97,44
1272.67,46
1271.37,45
1270.08,45
1268.78,52
1267.48,50
1266.19,49
1264.89,46
1263.59,48
1262.30,55
1261.00,56
1259.71,57
1258.41,54
1257.11,51
1255.82,52
1254.52,56
1253.22,58
1251.93,57
1250.63,59
1249.33,56
1248.04,54
1246.74,54
1245.44,53
1244.15,53
1242.85,52
1241.55,54
1240.26,56
1238.96,57
1237.67,57
1236.37,55
1235.07,55
1233.78,52
1232.48,52
1231.18,53
1229.89,53
1228.59,50
1227.29,47
1226.00,46
1224.70,45
1223.40,46
1222.11,45
1220.81,42
1219.51,43
1218.22,38
1216.92,39
1215.63,37
1214.33,34
1213.03,34
1211.74,34
1210.44,32
1209.14,30
1207.85,32
1206.55,34
1205.25,34
1203.96,32
1202.66,33
1201.36,31
1200.07,33
1198.77,33
1197.47,29
1196.18,26
1194.88,24
1193.59,24
1192.29,22
1190.99,17
1189.70,12
1188.40,11
1187.10,11
1185.81,11
1184.51,9
1183.21,9
1181.92,9
1180.62,8
1179.32,6
1178.03,8
1176.73,7
1175.43,7
1174.14,8
1172.84,10
1171.55,10
1170.25,13
1168.95,8
1167.66,7
1166.36,8
1165.06,6
1163.77,5
1162.47,7
1161.17,4
1159.88,1
1158.58,-0
1157.28,0
1155.99,-2
1154.69,5
1153.40,-1
1152.10,-5
1150.80,-1
1149.51,1
1148.21,2
1146.91,-2
1145.62,-5
1144.32,-5
1143.02,-5
1141.73,-5
1140.43,-4
1139.13,-6
1137.84,-3
1136.54,-5
1135.24,-10
1133.95,-7
1132.65,-6
1131.36,-7
1130.06,-6
1128.76,-4
1127.47,-4
1126.17,-5
1124.87,-0
1123.58,-1
1122.28,1
1120.98,4
1119.69,2
1118.39,4
1117.09,4
1115.80,2
1114.50,-1
1113.20,-1
1111.91,1
1110.61,-2
1109.32,-3
1108.02,-3
1106.72,-3
1105.43,-5
1104.13,-6
1102.83,-6
1101.54,-3
1100.24,-5
1098.94,-6
1097.65,-0
1096.35,-1
1095.05,-4
1093.76,-1
1092.46,-0
1091.16,-1
1089.87,3
1088.57,2
1087.28,-5
1085.98,-2
1084.68,1
1083.39,-4
1082.09,0
1080.79,2
1079.50,1
1078.20,-3
1076.90,-4
1075.61,-0
1074.31,-3
1073.01,-4
1071.72,-2
1070.42,0
1069.12,-2
1067.83,-9
1066.53,-5
1065.24,-4
1063.94,-2
1062.64,0
1061.35,-2
1060.05,-2
1058.75,-3
1057.46,-3
1056.16,-3
1054.86,-3
1053.57,-2
1052.27,-3
1050.97,-1
1049.68,-1
1048.38,-5
1047.08,-5
1045.79,-3
1044.49,-6
1043.20,-3
1041.90,1
1040.60,-3
1039.31,-2
1038.01,-3
1036.71,-1
1035.42,1
1034.12,-0
1032.82,-3
1031.53,3
1030.23,2
1028.93,5
1027.64,11
1026.34,7
1025.04,8
1023.75,12
1022.45,15
1021.16,16
1019.86,18
1018.56,10
1017.27,10
1015.97,11
1014.67,8
1013.38,5
1012.08,11
1010.78,10
1009.49,10
1008.19,14
1006.89,19
1005.60,22
1004.30,21
1003.00,23
1001.71,25
1000.41,25
999.12,30
997.82,33
996.52,34
995.23,34
993.93,34
992.63,30
991.34,23
990.04,17
988.74,13
987.45,9
986.15,2
984.85,5
983.56,1
982.26,-0
980.96,1
979.67,-0
978.37,-3
977.08,-2
975.78,-5
974.48,-5
973.19,0
971.89,-6
970.59,-4
969.30,-1
968.00,-0
966.70,-2
965.41,0
964.11,-1
962.81,0
961.52,2
960.22,-1
958.92,-6
957.63,1
956.33,3
955.04,3
953.74,5
952.44,-0
951.15,8
949.85,7
948.55,5
947.26,7
945.96,3
944.66,6
943.37,7
942.07,7
940.77,6
939.48,6
938.18,12
936.88,17
935.59,16
934.29,11
933.00,17
931.70,14
930.40,12
929.11,14
927.81,18
926.51,20
925.22,17
923.92,16
922.62,17
921.33,14
920.03,18
918.73,17
917.44,13
916.14,11
914.84,10
913.55,6
912.25,7
910.96,8
909.66,7
908.36,5
907.07,3
905.77,5
904.47,7
903.18,7
901.88,10
900.58,10
899.29,4
897.99,1
896.69,5
895.40,1
894.10,7
892.80,8
891.51,8
890.21,10
888.92,12
887.62,10
886.32,11
885.03,11
883.73,10
882.43,8
881.14,16
879.84,18
878.54,13
877.25,17
875.95,15
874.65,17
873.36,21
872.06,23
870.77,25
869.47,26
868.17,28
866.88,28
865.58,24
864.28,23
862.99,26
861.69,31
860.39,29
859.10,19
857.80,30
856.50,32
855.21,32
853.91,35
852.61,41
851.32,46
850.02,48
848.73,51
847.43,56
846.13,51
844.84,52
843.54,54
842.24,54
840.95,47
839.65,48
838.35,47
837.06,45
835.76,40
834.46,31
833.17,26
831.87,24
830.57,25
829.28,27
827.98,27
826.69,27
825.39,27
824.09,28
822.80,32
821.50,33
820.20,35
818.91,34
817.61,29
816.31,27
815.02,25
813.72,19
812.42,14
811.13,15
809.83,16
808.53,14
807.24,11
805.94,9
804.65,6
803.35,5
802.05,4
800.76,6
799.46,12
798.16,13
796.87,10
795.57,6
794.27,6
792.98,6
791.68,10
790.38,8
789.09,4
787.79,6
786.49,6
785.20,2
783.90,-2
782.61,-2
781.31,2
780.01,4
778.72,4
777.42,4
776.12,3
774.83,5
773.53,1
772.23,-3
770.94,-2
769.64,4
768.34,6
767.05,5
765.75,2
764.45,-0
763.16,1
761.86,6
760.57,14
759.27,18
757.97,11
756.68,11
755.38,12
754.08,15
752.79,20
751.49,17
750.19,16
748.90,19
747.60,21
746.30,17
745.01,15
743.71,14
742.41,12
741.12,10
739.82,7
738.53,8
737.23,10
735.93,9
734.64,7
733.34,9
732.04,10
730.75,6
729.45,3
728.15,5
726.86,8
725.56,7
724.26,0
722.97,5
721.67,9
720.37,11
719.08,12
717.78,11
716.49,6
715.19,4
713.89,7
712.60,1
711.30,3
710.00,5
708.71,4
707.41,-1
706.11,4
704.82,7
703.52,9
702.22,12
700.93,3
699.63,-1
698.33,1
697.04,5
695.74,11
694.45,10
693.15,6
691.85,5
690.56,4
689.26,6
687.96,6
686.67,5
685.37,12
684.07,9
682.78,8
681.48,9
680.18,9
678.89,9
677.59,7
676.29,3
675.00,-2
673.70,3
672.41,4
671.11,2
669.81,1
668.52,-2
667.22,-1
665.92,1
664.63,1
663.33,3
662.03,6
660.74,4
659.44,-2
658.14,-3
656.85,-1
655.55,0
654.25,-2
652.96,-6
651.66,2
650.37,4
649.07,0
647.77,1
646.48,0
645.18,1
643.88,2
642.59,4
641.29,7
639.99,8
638.70,11
637.40,18
636.10,22
634.81,25
633.51,23
632.21,18
630.92,18
629.62,12
628.33,10
627.03,13
625.73,10
624.44,9
623.14,7
621.84,4
620.55,6
619.25,7
617.95,9
616.66,11
615.36,17
614.06,8
612.77,8
611.47,19
610.18,21
608.88,18
607.58,13
606.29,11
604.99,18
603.69,10
602.40,6
601.10,9
599.80,7
598.51,2
597.21,4
595.91,10
594.62,8
593.32,9
592.02,9
590.73,6
589.43,5
588.14,-0
586.84,-0
585.54,3
584.25,3
582.95,-2
581.65,-6
580.36,-5
579.06,-4
577.76,-1
576.47,2
575.17,3
573.87,0
572.58,3
571.28,4
569.98,4
568.69,7
567.39,11
566.10,9
564.80,6
563.50,11
562.21,12
560.91,9
559.61,7
558.32,12
557.02,9
555.72,6
554.43,3
553.13,1
551.83,-8
550.54,-8
549.24,-0
547.94,-2
546.65,-5
545.35,-4
544.06,0
542.76,-1
541.46,-1
540.17,-3
538.87,-5
537.57,3
536.28,6
534.98,5
533.68,1
532.39,-5
531.09,-0
529.79,7
528.50,11
527.20,13
525.90,13
524.61,9
523.31,3
522.02,1
520.72,-1
519.42,1
518.13,11
516.83,10
515.53,10
514.24,10
512.94,8
511.64,5
510.35,4
509.05,4
507.75,2
506.46,1
505.16,3
503.86,5
502.57,1
501.27,0
499.98,4
498.68,9
497.38,7
496.09,7
494.79,6
493.49,5
492.20,9
490.90,15
489.60,18
488.31,18
487.01,32
485.71,39
484.42,42
483.12,45
481.82,44
480.53,41
479.23,36
477.94,32
476.64,24
475.34,18
474.05,14
472.75,6
471.45,4
470.16,4
468.86,4
467.56,7
466.27,6
464.97,7
463.67,15
462.38,17
461.08,22
459.78,24
458.49,18
457.19,26
455.90,36
454.60,41
453.30,40
452.01,35
450.71,30
449.41,25
448.12,25
446.82,36
445.52,49
444.23,54
442.93,53
441.63,51
440.34,48
439.04,46
437.74,43
436.45,48
435.15,59
433.86,65
432.56,62
431.26,55
429.97,47
428.67,38
427.37,33
426.08,32
424.78,34
423.48,34
422.19,42
420.89,54
419.59,63
418.30,72
417.00,77
415.70,81
414.41,92
413.11,102
411.82,108
410.52,112
409.22,112
407.93,110
406.63,107
405.33,102
404.04,87
402.74,70
401.44,58
400.15,60
398.85,53
397.55,50
396.26,62
394.96,68
393.66,68
392.37,64
391.07,60
389.78,54
388.48,50
387.18,50
385.89,55
384.59,55
383.29,52
382.00,46
380.70,51
379.40,47
378.11,39
376.81,43
375.51,51
374.22,55
372.92,53
371.62,60
370.33,64
369.03,60
367.74,47
366.44,40
365.14,34
363.85,31
362.55,37
361.25,33
359.96,31
358.66,38
357.36,40
356.07,34
354.77,31
353.47,42
352.18,30
350.88,17
349.59,12
348.29,12
346.99,8
345.70,3
344.40,1
343.10,11
341.81,18
340.51,21
339.21,26
337.92,23
336.62,20
335.32,21
334.03,29
332.73,29
331.43,24
330.14,24
328.84,26
327.55,26
326.25,24
324.95,13
323.66,4
322.36,0
321.06,4
319.77,5
318.47,5
317.17,4
315.88,-5
314.58,-5
313.28,0
311.99,3
310.69,0
309.39,-6
308.10,-13
306.80,-5
305.51,1
304.21,6
302.91,10
301.62,6
300.32,2
299.02,0
297.73,2
296.43,-4
295.13,-10
293.84,-11
292.54,-5
291.24,-4
289.95,-7
288.65,0
287.35,-2
286.06,-9
284.76,-15
283.47,-10
282.17,-5
280.87,-2
279.58,4
278.28,11
276.98,14
275.69,8
274.39,-0
273.09,2
271.80,11
270.50,-0
269.20,0
267.91,5
266.61,2
265.31,0
264.02,-1
262.72,-1
261.43,4
260.13,5
258.83,4
257.54,6
256.24,3
254.94,2
253.65,0
252.35,-7
251.05,-4
249.76,3
248.46,2
247.16,6
245.87,9
244.57,8
243.27,-6
241.98,-8
240.68,-1
239.39,-8
238.09,-5
236.79,-1
235.50,-3
234.20,1
232.90,10
231.61,17
230.31,13
229.01,11
227.72,12
226.42,17
225.12,13
223.83,9
222.53,8
221.23,6
219.94,3
218.64,3
217.35,15
216.05,12
214.75,4
213.46,0
212.16,-6
210.86,-6
209.57,-1
208.27,7
206.97,1
205.68,-8
204.38,-4
203.08,1
201.79,2
200.49,-1
