Created As Omnic File,BIOL 015
Raman Shift / cm-1,INT
3699.66,-1
3698.36,-1
3697.06,-1
3695.77,-1
3694.47,-0
3693.18,-0
3691.88,-1
3690.58,-1
3689.29,-1
3687.99,-1
3686.69,-1
3685.40,-1
3684.10,-1
3682.80,-1
3681.51,-1
3680.21,-1
3678.91,-1
3677.62,-1
3676.32,-0
3675.02,-1
3673.73,-0
3672.43,0
3671.14,-1
3669.84,0
3668.54,-1
3667.25,-0
3665.95,-1
3664.65,0
3663.36,-0
3662.06,0
3660.76,-1
3659.47,0
3658.17,-0
3656.87,-0
3655.58,-1
3654.28,-0
3652.98,-0
3651.69,0
3650.39,-0
3649.10,-1
3647.80,-0
3646.50,0
3645.21,0
3643.91,-0
3642.61,0
3641.32,-0
3640.02,-0
3638.72,0
3637.43,-0
3636.13,0
3634.83,-0
3633.54,-0
3632.24,-1
3630.94,-0
3629.65,-0
3628.35,0
3627.06,-0
3625.76,0
3624.46,0
3623.17,0
3621.87,-0
3620.57,-0
3619.28,-0
3617.98,0
3616.68,0
3615.39,0
3614.09,0
3612.79,0
3611.50,0
3610.20,-0
3608.90,1
3607.61,-0
3606.31,-0
3605.02,0
3603.72,0
3602.42,1
3601.13,-0
3599.83,0
3598.53,-0
3597.24,0
3595.94,1
3594.64,0
3593.35,1
3592.05,0
3590.75,0
3589.46,0
3588.16,1
3586.87,-0
3585.57,0
3584.27,0
3582.98,1
3581.68,1
3580.38,1
3579.09,1
3577.79,2
3576.49,1
3575.20,1
3573.90,0
3572.60,1
3571.31,0
3570.01,1
3568.71,-0
3567.42,0
3566.12,0
3564.83,-0
3563.53,1
3562.23,1
3560.94,-0
3559.64,-0
3558.34,1
3557.05,0
3555.75,-0
3554.45,0
3553.16,1
3551.86,0
3550.56,0
3549.27,0
3547.97,0
3546.67,0
3545.38,0
3544.08,0
3542.79,1
3541.49,0
3540.19,0
3538.90,0
3537.60,0
3536.30,0
3535.01,1
3533.71,1
3532.41,0
3531.12,1
3529.82,1
3528.52,-0
3527.23,1
3525.93,-0
3524.63,1
3523.34,-0
3522.04,0
3520.75,0
3519.45,0
3518.15,0
3516.86,0
3515.56,1
3514.26,1
3512.97,1
3511.67,0
3510.37,0
3509.08,1
3507.78,1
3506.48,1
3505.19,1
3503.89,0
3502.59,1
3501.30,0
3500.00,1
3498.71,0
3497.41,1
3496.11,1
3494.82,0
3493.52,1
3492.22,0
3490.93,-0
3489.63,0
3488.33,0
3487.04,0
3485.74,-0
3484.44,0
3483.15,0
3481.85,0
3480.55,0
3479.26,0
3477.96,-0
3476.67,-0
3475.37,0
3474.07,0
3472.78,-0
3471.48,0
3470.18,1
3468.89,0
3467.59,-0
3466.29,1
3465.00,0
3463.70,0
3462.40,0
3461.11,-0
3459.81,0
3458.51,0
3457.22,-0
3455.92,0
3454.63,-0
3453.33,0
3452.03,0
3450.74,-0
3449.44,0
3448.14,0
3446.85,0
3445.55,-0
3444.25,0
3442.96,0
3441.66,-0
3440.36,0
3439.07,1
3437.77,-0
3436.47,0
3435.18,0
3433.88,-0
3432.59,-0
3431.29,-1
3429.99,0
3428.70,-0
3427.40,-1
3426.10,1
3424.81,-0
3423.51,-0
3422.21,-0
3420.92,-0
3419.62,-0
3418.32,-0
3417.03,0
3415.73,-0
3414.43,-0
3413.14,-0
3411.84,0
3410.55,0
3409.25,-0
3407.95,-0
3406.66,-0
3405.36,0
3404.06,-0
3402.77,0
3401.47,-0
3400.17,0
3398.88,0
3397.58,-0
3396.28,-0
3394.99,-0
3393.69,-0
3392.39,-0
3391.10,-1
3389.80,-0
3388.51,-0
3387.21,-0
3385.91,0
3384.62,-0
3383.32,-0
3382.02,-0
3380.73,-0
3379.43,-1
3378.13,0
3376.84,-0
3375.54,0
3374.24,-1
3372.95,0
3371.65,-0
3370.35,0
3369.06,-1
3367.76,1
3366.47,0
3365.17,-1
3363.87,-0
3362.58,0
3361.28,0
3359.98,0
3358.69,1
3357.39,-0
3356.09,-0
3354.80,-0
3353.50,-0
3352.20,-0
3350.91,-1
3349.61,0
3348.31,-1
3347.02,-0
3345.72,0
3344.43,0
3343.13,-0
3341.83,-0
3340.54,-0
3339.24,-0
3337.94,-1
3336.65,0
3335.35,-1
3334.05,0
3332.76,0
3331.46,-0
3330.16,0
3328.87,-0
3327.57,0
3326.27,0
3324.98,-0
3323.68,-0
3322.39,0
3321.09,-0
3319.79,-0
3318.50,-0
3317.20,-0
3315.90,-0
3314.61,-0
3313.31,0
3312.01,0
3310.72,-1
3309.42,-0
3308.12,-0
3306.83,-1
3305.53,-0
3304.24,-0
3302.94,-0
3301.64,-0
3300.35,-0
3299.05,-0
3297.75,-1
3296.46,-1
3295.16,-0
3293.86,0
3292.57,0
3291.27,0
3289.97,-0
3288.68,0
3287.38,1
3286.08,0
3284.79,-0
3283.49,0
3282.20,0
3280.90,-0
3279.60,0
3278.31,0
3277.01,0
3275.71,0
3274.42,-0
3273.12,-0
3271.82,-1
3270.53,1
3269.23,-0
3267.93,1
3266.64,-0
3265.34,0
3264.04,0
3262.75,0
3261.45,0
3260.16,-0
3258.86,0
3257.56,-0
3256.27,1
3254.97,0
3253.67,0
3252.38,-0
3251.08,-0
3249.78,-0
3248.49,0
3247.19,0
3245.89,-0
3244.60,0
3243.30,0
3242.00,-0
3240.71,0
3239.41,1
3238.12,0
3236.82,-0
3235.52,1
3234.23,0
3232.93,-0
3231.63,-0
3230.34,0
3229.04,-0
3227.74,1
3226.45,0
3225.15,0
3223.85,0
3222.56,-0
3221.26,-0
3219.96,1
3218.67,1
3217.37,0
3216.08,-0
3214.78,0
3213.48,-0
3212.19,0
3210.89,1
3209.59,-0
3208.30,0
3207.00,1
3205.70,-0
3204.41,1
3203.11,0
3201.81,0
3200.52,-0
3199.22,0
3197.92,0
3196.63,0
3195.33,0
3194.04,0
3192.74,0
3191.44,0
3190.15,-0
3188.85,-0
3187.55,-0
3186.26,1
3184.96,-1
3183.66,0
3182.37,-0
3181.07,0
3179.77,-0
3178.48,0
3177.18,-0
3175.88,-0
3174.59,-0
3173.29,-0
3172.00,-0
3170.70,0
3169.40,-0
3168.11,-0
3166.81,-1
3165.51,-1
3164.22,0
3162.92,-1
3161.62,-0
3160.33,-0
3159.03,-0
3157.73,0
3156.44,-0
3155.14,-1
3153.84,-0
3152.55,-0
3151.25,-0
3149.96,0
3148.66,-1
3147.36,-0
3146.07,-0
3144.77,0
3143.47,-1
3142.18,-0
3140.88,-0
3139.58,-1
3138.29,0
3136.99,-1
3135.69,-0
3134.40,-0
3133.10,-0
3131.80,-0
3130.51,-0
3129.21,-0
3127.92,-0
3126.62,0
3125.32,-1
3124.03,-1
3122.73,0
3121.43,-1
3120.14,-1
3118.84,-1
3117.54,-0
3116.25,0
3114.95,-1
3113.65,-0
3112.36,-0
3111.06,-0
3109.76,-0
3108.47,-0
3107.17,0
3105.88,-0
3104.58,-0
3103.28,-1
3101.99,1
3100.69,-1
3099.39,-0
3098.10,-1
3096.80,-0
3095.50,-0
3094.21,-1
3092.91,-1
3091.61,-0
3090.32,-1
3089.02,-0
3087.72,-1
3086.43,0
3085.13,-0
3083.84,-0
3082.54,-1
3081.24,-1
3079.95,-0
3078.65,-1
3077.35,-1
3076.06,-0
3074.76,-0
3073.46,-0
3072.17,-1
3070.87,-0
3069.57,-1
3068.28,-0
3066.98,-1
3065.68,0
3064.39,-0
3063.09,0
3061.80,-0
3060.50,-0
3059.20,-0
3057.91,0
3056.61,-0
3055.31,-0
3054.02,-0
3052.72,-0
3051.42,0
3050.13,0
3048.83,-0
3047.53,0
3046.24,-0
3044.94,0
3043.65,-1
3042.35,-1
3041.05,0
3039.76,0
3038.46,-0
3037.16,-1
3035.87,-0
3034.57,0
3033.27,0
3031.98,0
3030.68,1
3029.38,1
3028.09,0
3026.79,-0
3025.49,1
3024.20,1
3022.90,1
3021.61,0
3020.31,1
3019.01,1
3017.72,0
3016.42,1
3015.12,2
3013.83,1
3012.53,3
3011.23,2
3009.94,3
3008.64,3
3007.34,2
3006.05,3
3004.75,3
3003.45,4
3002.16,4
3000.86,4
2999.57,4
2998.27,4
2996.97,4
2995.68,3
2994.38,4
2993.08,4
2991.79,4
2990.49,4
2989.19,4
2987.90,3
2986.60,4
2985.30,4
2984.01,4
2982.71,5
2981.41,4
2980.12,6
2978.82,5
2977.53,6
2976.23,6
2974.93,5
2973.64,7
2972.34,8
2971.04,7
2969.75,7
2968.45,8
2967.15,8
2965.86,8
2964.56,9
2963.26,10
2961.97,11
2960.67,12
2959.37,12
2958.08,13
2956.78,13
2955.49,13
2954.19,14
2952.89,14
2951.60,16
2950.30,16
2949.00,18
2947.71,17
2946.41,17
2945.11,17
2943.82,20
2942.52,20
2941.22,20
2939.93,21
2938.63,21
2937.33,22
2936.04,23
2934.74,24
2933.45,25
2932.15,26
2930.85,27
2929.56,28
2928.26,28
2926.96,29
2925.67,29
2924.37,30
2923.07,31
2921.78,30
2920.48,30
2919.18,30
2917.89,31
2916.59,31
2915.29,29
2914.00,30
2912.70,30
2911.41,30
2910.11,30
2908.81,29
2907.52,30
2906.22,29
2904.92,29
2903.63,30
2902.33,30
2901.03,29
2899.74,29
2898.44,29
2897.14,29
2895.85,29
2894.55,30
2893.25,29
2891.96,28
2890.66,30
2889.37,29
2888.07,28
2886.77,30
2885.48,29
2884.18,30
2882.88,31
2881.59,29
2880.29,29
2878.99,29
2877.70,28
2876.40,28
2875.10,29
2873.81,28
2872.51,30
2871.21,28
2869.92,29
2868.62,28
2867.33,30
2866.03,29
2864.73,29
2863.44,29
2862.14,29
2860.84,29
2859.55,29
2858.25,30
2856.95,28
2855.66,28
2854.36,29
2853.06,29
2851.77,29
2850.47,29
2849.17,29
2847.88,29
2846.58,29
2845.29,29
2843.99,31
2842.69,30
2841.40,29
2840.10,28
2838.80,26
2837.51,24
2836.21,21
2834.91,19
2833.62,16
2832.32,14
2831.02,12
2829.73,10
2828.43,9
2827.13,8
2825.84,7
2824.54,6
2823.25,6
2821.95,4
2820.65,3
2819.36,4
2818.06,2
2816.76,2
2815.47,2
2814.17,2
2812.87,2
2811.58,2
2810.28,2
2808.98,2
2807.69,1
2806.39,1
2805.09,1
2803.80,1
2802.50,0
2801.21,1
2799.91,-0
2798.61,0
2797.32,1
2796.02,1
2794.72,0
2793.43,-0
2792.13,0
2790.83,-0
2789.54,-0
2788.24,0
2786.94,0
2785.65,0
2784.35,0
2783.06,0
2781.76,-0
2780.46,-0
2779.17,0
2777.87,-0
2776.57,-1
2775.28,-0
2773.98,-1
2772.68,-1
2771.39,0
2770.09,-0
2768.79,1
2767.50,-0
2766.20,0
2764.90,0
2763.61,0
2762.31,-1
2761.02,0
2759.72,1
2758.42,0
2757.13,-1
2755.83,-0
2754.53,0
2753.24,0
2751.94,-0
2750.64,0
2749.35,-0
2748.05,-0
2746.75,0
2745.46,0
2744.16,1
2742.86,-0
2741.57,1
2740.27,1
2738.98,1
2737.68,0
2736.38,0
2735.09,0
2733.79,1
2732.49,2
2731.20,1
2729.90,1
2728.60,2
2727.31,2
2726.01,2
2724.71,3
2723.42,2
2722.12,2
2720.82,2
2719.53,3
2718.23,2
2716.94,4
2715.64,2
2714.34,3
2713.05,3
2711.75,3
2710.45,3
2709.16,3
2707.86,2
2706.56,3
2705.27,3
2703.97,3
2702.67,1
2701.38,2
2700.08,1
2698.78,2
2697.49,1
2696.19,2
2694.90,1
2693.60,1
2692.30,2
2691.01,1
2689.71,1
2688.41,2
2687.12,1
2685.82,2
2684.52,1
2683.23,1
2681.93,3
2680.63,2
2679.34,1
2678.04,1
2676.74,1
2675.45,0
2674.15,1
2672.86,0
2671.56,2
2670.26,0
2668.97,1
2667.67,1
2666.37,1
2665.08,-0
2663.78,1
2662.48,1
2661.19,0
2659.89,1
2658.59,1
2657.30,1
2656.00,0
2654.70,-0
2653.41,0
2652.11,1
2650.82,0
2649.52,1
2648.22,1
2646.93,0
2645.63,0
2644.33,0
2643.04,-1
2641.74,0
2640.44,1
2639.15,1
2637.85,1
2636.55,1
2635.26,-1
2633.96,1
2632.66,-0
2631.37,2
2630.07,0
2628.78,0
2627.48,1
2626.18,1
2624.89,0
2623.59,1
2622.29,1
2621.00,1
2619.70,-0
2618.40,0
2617.11,1
2615.81,0
2614.51,1
2613.22,1
2611.92,0
2610.62,0
2609.33,-0
2608.03,0
2606.74,-0
2605.44,0
2604.14,1
2602.85,1
2601.55,-1
2600.25,-0
2598.96,1
2597.66,1
2596.36,2
2595.07,1
2593.77,1
2592.47,-0
2591.18,-1
2589.88,1
2588.58,0
2587.29,1
2585.99,0
2584.70,0
2583.40,1
2582.10,-1
2580.81,2
2579.51,0
2578.21,2
2576.92,1
2575.62,1
2574.32,1
2573.03,1
2571.73,1
2570.43,1
2569.14,0
2567.84,2
2566.54,1
2565.25,-0
2563.95,1
2562.66,2
2561.36,1
2560.06,1
2558.77,1
2557.47,1
2556.17,1
2554.88,-0
2553.58,2
2552.28,1
2550.99,2
2549.69,2
2548.39,1
2547.10,2
2545.80,2
2544.50,2
2543.21,3
2541.91,1
2540.62,2
2539.32,3
2538.02,2
2536.73,3
2535.43,2
2534.13,2
2532.84,1
2531.54,1
2530.24,1
2528.95,0
2527.65,1
2526.35,2
2525.06,0
2523.76,-0
2522.46,1
2521.17,1
2519.87,0
2518.58,0
2517.28,1
2515.98,1
2514.69,2
2513.39,1
2512.09,2
2510.80,2
2509.50,-0
2508.20,1
2506.91,1
2505.61,1
2504.31,1
2503.02,0
2501.72,-0
2500.43,1
2499.13,0
2497.83,1
2496.54,-0
2495.24,0
2493.94,0
2492.65,-1
2491.35,-1
2490.05,0
2488.76,1
2487.46,1
2486.16,-0
2484.87,1
2483.57,-0
2482.27,0
2480.98,-0
2479.68,0
2478.39,1
2477.09,0
2475.79,-1
2474.50,0
2473.20,0
2471.90,-0
2470.61,1
2469.31,1
2468.01,-0
2466.72,-1
2465.42,-2
2464.12,-0
2462.83,-1
2461.53,0
2460.23,-0
2458.94,-1
2457.64,-1
2456.35,-1
2455.05,-1
2453.75,-1
2452.46,-1
2451.16,-1
2449.86,-1
2448.57,-1
2447.27,0
2445.97,-0
2444.68,-0
2443.38,1
2442.08,-0
2440.79,0
2439.49,-0
2438.19,-0
2436.90,-1
2435.60,-1
2434.31,-0
2433.01,0
2431.71,0
2430.42,-0
2429.12,-1
2427.82,-1
2426.53,-1
2425.23,-1
2423.93,-1
2422.64,-1
2421.34,-1
2420.04,-1
2418.75,-1
2417.45,-1
2416.15,-1
2414.86,-2
2413.56,0
2412.27,-0
2410.97,-0
2409.67,-1
2408.38,-1
2407.08,-1
2405.78,1
2404.49,-0
2403.19,-1
2401.89,-1
2400.60,-1
2399.30,-1
2398.00,-0
2396.71,-1
2395.41,0
2394.11,-0
2392.82,-2
2391.52,-1
2390.23,-0
2388.93,-1
2387.63,-1
2386.34,-1
2385.04,-0
2383.74,1
2382.45,-0
2381.15,-2
2379.85,1
2378.56,-1
2377.26,0
2375.96,1
2374.67,0
2373.37,-1
2372.07,-1
2370.78,-0
2369.48,2
2368.19,-0
2366.89,-0
2365.59,-0
2364.30,0
2363.00,0
2361.70,-1
2360.41,-1
2359.11,1
2357.81,1
2356.52,-0
2355.22,-0
2353.92,1
2352.63,0
2351.33,1
2350.03,2
2348.74,-1
2347.44,1
2346.15,1
2344.85,-1
2343.55,0
2342.26,-0
2340.96,-1
2339.66,0
2338.37,-0
2337.07,-1
2335.77,-1
2334.48,0
2333.18,-1
2331.88,1
2330.59,-0
2329.29,-1
2327.99,-2
2326.70,1
2325.40,-1
2324.11,0
2322.81,-1
2321.51,-0
2320.22,-1
2318.92,-1
2317.62,-2
2316.33,0
2315.03,1
2313.73,-1
2312.44,-2
2311.14,-1
2309.84,0
2308.55,-1
2307.25,-0
2305.95,-2
2304.66,-1
2303.36,-1
2302.07,1
2300.77,0
2299.47,-0
2298.18,1
2296.88,-1
2295.58,0
2294.29,1
2292.99,-0
2291.69,-1
2290.40,-1
2289.10,-1
2287.80,-0
2286.51,-0
2285.21,-1
2283.91,0
2282.62,0
2281.32,1
2280.03,-1
2278.73,0
2277.43,1
2276.14,0
2274.84,1
2273.54,-2
2272.25,1
2270.95,-1
2269.65,-0
2268.36,-0
2267.06,-1
2265.76,-1
2264.47,-1
2263.17,0
2261.87,-0
2260.58,-0
2259.28,-2
2257.99,1
2256.69,0
2255.39,-1
2254.10,-0
2252.80,0
2251.50,1
2250.21,-1
2248.91,-1
2247.61,1
2246.32,-0
2245.02,-1
2243.72,-0
2242.43,1
2241.13,-0
2239.84,1
2238.54,-0
2237.24,2
2235.95,2
2234.65,1
2233.35,-0
2232.06,-2
2230.76,2
2229.46,-1
2228.17,0
2226.87,-0
2225.57,-0
2224.28,3
2222.98,3
2221.68,1
2220.39,1
2219.09,0
2217.80,3
2216.50,2
2215.20,2
2213.91,0
2212.61,2
2211.31,1
2210.02,1
2208.72,-0
2207.42,2
2206.13,3
2204.83,1
2203.53,1
2202.24,1
2200.94,1
2199.64,3
2198.35,2
2197.05,2
2195.76,2
2194.46,3
2193.16,3
2191.87,3
2190.57,1
2189.27,1
2187.98,3
2186.68,-0
2185.38,-0
2184.09,1
2182.79,-0
2181.49,1
2180.20,4
2178.90,2
2177.60,1
2176.31,3
2175.01,3
2173.72,2
2172.42,2
2171.12,1
2169.83,2
2168.53,1
2167.23,0
2165.94,-0
2164.64,-2
2163.34,1
2162.05,0
2160.75,0
2159.45,3
2158.16,-1
2156.86,1
2155.56,-0
2154.27,3
2152.97,1
2151.68,-1
2150.38,1
2149.08,1
2147.79,0
2146.49,0
2145.19,2
2143.90,-0
2142.60,-0
2141.30,1
2140.01,2
2138.71,0
2137.41,2
2136.12,3
2134.82,3
2133.52,4
2132.23,4
2130.93,2
2129.64,2
2128.34,-1
2127.04,1
2125.75,2
2124.45,3
2123.15,2
2121.86,2
2120.56,3
2119.26,1
2117.97,1
2116.67,4
2115.37,1
2114.08,2
2112.78,3
2111.48,2
2110.19,1
2108.89,1
2107.60,1
2106.30,1
2105.00,0
2103.71,3
2102.41,1
2101.11,0
2099.82,1
2098.52,1
2097.22,3
2095.93,0
2094.63,0
2093.33,0
2092.04,1
2090.74,1
2089.44,-1
2088.15,-1
2086.85,-1
2085.56,1
2084.26,1
2082.96,-1
2081.67,0
2080.37,-0
2079.07,1
2077.78,-4
2076.48,-2
2075.18,-3
2073.89,-3
2072.59,-3
2071.29,-4
2070.00,-4
2068.70,-4
2067.40,-1
2066.11,0
2064.81,-3
2063.52,-1
2062.22,-3
2060.92,-2
2059.63,-2
2058.33,-4
2057.03,-2
2055.74,-1
2054.44,-4
2053.14,-3
2051.85,-2
2050.55,-3
2049.25,-4
2047.96,-1
2046.66,-4
2045.36,2
2044.07,-3
2042.77,1
2041.48,0
2040.18,0
2038.88,1
2037.59,-2
2036.29,-2
2034.99,-2
2033.70,0
2032.40,-2
2031.10,-3
2029.81,0
2028.51,-2
2027.21,-3
2025.92,-1
2024.62,0
2023.32,-2
2022.03,-2
2020.73,-1
2019.44,1
2018.14,0
2016.84,-1
2015.55,3
2014.25,-0
2012.95,-2
2011.66,-1
2010.36,-2
2009.06,-2
2007.77,-1
2006.47,-1
2005.17,-3
2003.88,-4
2002.58,-3
2001.28,-3
1999.99,-1
1998.69,-1
1997.40,-2
1996.10,-1
1994.80,-1
1993.51,-1
1992.21,-2
1990.91,-4
1989.62,-4
1988.32,-4
1987.02,-3
1985.73,-1
1984.43,-1
1983.13,-2
1981.84,-2
1980.54,-4
1979.24,-2
1977.95,-5
1976.65,-1
1975.36,-1
1974.06,0
1972.76,-2
1971.47,-2
1970.17,-2
1968.87,0
1967.58,-1
1966.28,-2
1964.98,-1
1963.69,-1
1962.39,3
1961.09,-1
1959.80,-0
1958.50,1
1957.21,1
1955.91,3
1954.61,2
1953.32,4
1952.02,4
1950.72,2
1949.43,2
1948.13,2
1946.83,3
1945.54,3
1944.24,3
1942.94,5
1941.65,5
1940.35,3
1939.05,5
1937.76,2
1936.46,4
1935.17,8
1933.87,2
1932.57,4
1931.28,5
1929.98,3
1928.68,6
1927.39,4
1926.09,-1
1924.79,0
1923.50,4
1922.20,3
1920.90,2
1919.61,-1
1918.31,0
1917.01,3
1915.72,4
1914.42,3
1913.13,3
1911.83,1
1910.53,1
1909.24,2
1907.94,2
1906.64,2
1905.35,4
1904.05,3
1902.75,4
1901.46,7
1900.16,4
1898.86,5
1897.57,4
1896.27,5
1894.97,3
1893.68,4
1892.38,4
1891.09,4
1889.79,4
1888.49,2
1887.20,5
1885.90,4
1884.60,6
1883.31,6
1882.01,4
1880.71,5
1879.42,5
1878.12,5
1876.82,4
1875.53,7
1874.23,7
1872.93,7
1871.64,9
1870.34,8
1869.05,4
1867.75,9
1866.45,6
1865.16,9
1863.86,9
1862.56,6
1861.27,7
1859.97,7
1858.67,7
1857.38,5
1856.08,7
1854.78,8
1853.49,7
1852.19,7
1850.89,6
1849.60,8
1848.30,8
1847.01,10
1845.71,9
1844.41,6
1843.12,8
1841.82,3
1840.52,10
1839.23,8
1837.93,6
1836.63,6
1835.34,7
1834.04,5
1832.74,6
1831.45,5
1830.15,3
1828.85,5
1827.56,6
1826.26,3
1824.97,3
1823.67,4
1822.37,6
1821.08,4
1819.78,-1
1818.48,1
1817.19,6
1815.89,4
1814.59,3
1813.30,4
1812.00,1
1810.70,0
1809.41,1
1808.11,2
1806.81,1
1805.52,0
1804.22,1
1802.93,1
1801.63,1
1800.33,2
1799.04,3
1797.74,-1
1796.44,4
1795.15,2
1793.85,1
1792.55,0
1791.26,-1
1789.96,0
1788.66,-2
1787.37,-2
1786.07,-3
1784.77,-1
1783.48,2
1782.18,0
1780.89,1
1779.59,1
1778.29,4
1777.00,5
1775.70,1
1774.40,0
1773.11,2
1771.81,-1
1770.51,-1
1769.22,-0
1767.92,3
1766.62,2
1765.33,-0
1764.03,1
1762.73,2
1761.44,1
1760.14,2
1758.85,2
1757.55,4
1756.25,5
1754.96,2
1753.66,8
1752.36,6
1751.07,6
1749.77,8
1748.47,8
1747.18,9
1745.88,9
1744.58,8
1743.29,10
1741.99,9
1740.69,9
1739.40,10
1738.10,6
1736.81,9
1735.51,9
1734.21,7
1732.92,4
1731.62,6
1730.32,4
1729.03,2
1727.73,4
1726.43,3
1725.14,0
1723.84,2
1722.54,2
1721.25,-0
1719.95,2
1718.65,-3
1717.36,-3
1716.06,-2
1714.77,-3
1713.47,-3
1712.17,-3
1710.88,-2
1709.58,-2
1708.28,-3
1706.99,-1
1705.69,-2
1704.39,-2
1703.10,-2
1701.80,3
1700.50,2
1699.21,-1
1697.91,2
1696.62,-0
1695.32,-1
1694.02,3
1692.73,0
1691.43,-4
1690.13,4
1688.84,7
1687.54,6
1686.24,6
1684.95,9
1683.65,9
1682.35,11
1681.06,12
1679.76,10
1678.46,10
1677.17,12
1675.87,14
1674.58,18
1673.28,19
1671.98,24
1670.69,22
1669.39,25
1668.09,27
1666.80,28
1665.50,37
1664.20,40
1662.91,41
1661.61,47
1660.31,51
1659.02,61
1657.72,61
1656.42,68
1655.13,73
1653.83,83
1652.54,91
1651.24,92
1649.94,94
1648.65,95
1647.35,90
1646.05,86
1644.76,81
1643.46,75
1642.16,65
1640.87,59
1639.57,49
1638.27,42
1636.98,35
1635.68,34
1634.38,29
1633.09,22
1631.79,22
1630.50,21
1629.20,16
1627.90,19
1626.61,17
1625.31,15
1624.01,13
1622.72,13
1621.42,15
1620.12,15
1618.83,13
1617.53,13
1616.23,11
1614.94,15
1613.64,10
1612.34,8
1611.05,13
1609.75,14
1608.46,15
1607.16,15
1605.86,15
1604.57,16
1603.27,20
1601.97,16
1600.68,18
1599.38,18
1598.08,15
1596.79,15
1595.49,13
1594.19,15
1592.90,16
1591.60,14
1590.30,12
1589.01,9
1587.71,11
1586.42,13
1585.12,9
1583.82,12
1582.53,13
1581.23,13
1579.93,12
1578.64,10
1577.34,8
1576.04,9
1574.75,6
1573.45,9
1572.15,9
1570.86,9
1569.56,7
1568.26,8
1566.97,9
1565.67,7
1564.38,5
1563.08,8
1561.78,6
1560.49,8
1559.19,5
1557.89,2
1556.60,5
1555.30,7
1554.00,7
1552.71,4
1551.41,0
1550.11,4
1548.82,7
1547.52,8
1546.22,3
1544.93,5
1543.63,3
1542.34,1
1541.04,1
1539.74,-1
1538.45,-1
1537.15,-1
1535.85,0
1534.56,2
1533.26,0
1531.96,1
1530.67,-1
1529.37,-2
1528.07,1
1526.78,1
1525.48,-1
1524.18,2
1522.89,0
1521.59,-0
1520.30,-1
1519.00,-2
1517.70,-0
1516.41,2
1515.11,0
1513.81,-1
1512.52,2
1511.22,4
1509.92,-3
1508.63,3
1507.33,5
1506.03,0
1504.74,-1
1503.44,1
1502.14,4
1500.85,3
1499.55,2
1498.26,4
1496.96,3
1495.66,2
1494.37,4
1493.07,5
1491.77,8
1490.48,13
1489.18,9
1487.88,8
1486.59,4
1485.29,7
1483.99,10
1482.70,9
1481.40,12
1480.10,17
1478.81,20
1477.51,19
1476.22,19
1474.92,25
1473.62,27
1472.33,27
1471.03,32
1469.73,37
1468.44,43
1467.14,46
1465.84,56
1464.55,64
1463.25,68
1461.95,71
1460.66,79
1459.36,87
1458.06,87
1456.77,103
1455.47,110
1454.18,118
1452.88,122
1451.58,128
1450.29,137
1448.99,142
1447.69,147
1446.40,152
1445.10,152
1443.80,162
1442.51,163
1441.21,163
1439.91,168
1438.62,171
1437.32,176
1436.02,174
1434.73,174
1433.43,168
1432.14,168
1430.84,167
1429.54,159
1428.25,148
1426.95,133
1425.65,118
1424.36,107
1423.06,95
1421.76,82
1420.47,71
1419.17,61
1417.87,51
1416.58,47
1415.28,41
1413.99,34
1412.69,35
1411.39,31
1410.10,29
1408.80,33
1407.50,29
1406.21,29
1404.91,25
1403.61,22
1402.32,23
1401.02,23
1399.72,19
1398.43,14
1397.13,19
1395.83,27
1394.54,20
1393.24,17
1391.95,19
1390.65,19
1389.35,16
1388.06,18
1386.76,19
1385.46,17
1384.17,21
1382.87,19
1381.57,18
1380.28,18
1378.98,14
1377.68,13
1376.39,15
1375.09,22
1373.79,18
1372.50,21
1371.20,21
1369.91,16
1368.61,19
1367.31,19
1366.02,19
1364.72,19
1363.42,18
1362.13,19
1360.83,25
1359.53,31
1358.24,29
1356.94,24
1355.64,26
1354.35,28
1353.05,26
1351.75,26
1350.46,28
1349.16,27
1347.87,32
1346.57,28
1345.27,33
1343.98,37
1342.68,37
1341.38,37
1340.09,33
1338.79,35
1337.49,38
1336.20,39
1334.90,36
1333.60,38
1332.31,42
1331.01,39
1329.71,36
1328.42,37
1327.12,42
1325.83,44
1324.53,41
1323.23,38
1321.94,42
1320.64,42
1319.34,50
1318.05,55
1316.75,56
1315.45,57
1314.16,60
1312.86,60
1311.56,63
1310.27,63
1308.97,67
1307.67,69
1306.38,72
1305.08,79
1303.79,81
1302.49,85
1301.19,92
1299.90,96
1298.60,98
1297.30,102
1296.01,107
1294.71,106
1293.41,109
1292.12,104
1290.82,100
1289.52,95
1288.23,91
1286.93,94
1285.63,92
1284.34,79
1283.04,77
1281.75,76
1280.45,71
1279.15,67
1277.86,72
1276.56,68
1275.26,71
1273.97,70
1272.67,72
1271.37,76
1270.08,76
1268.78,76
1267.48,81
1266.19,84
1264.89,86
1263.59,88
1262.30,92
1261.00,96
1259.71,92
1258.41,92
1257.11,95
1255.82,93
1254.52,90
1253.22,92
1251.93,88
1250.63,85
1249.33,86
1248.04,82
1246.74,79
1245.44,78
1244.15,69
1242.85,67
1241.55,68
1240.26,66
1238.96,61
1237.67,57
1236.37,58
1235.07,53
1233.78,52
1232.48,47
1231.18,48
1229.89,48
1228.59,45
1227.29,53
1226.00,48
1224.70,42
1223.40,41
1222.11,39
1220.81,32
1219.51,34
1218.22,32
1216.92,29
1215.63,26
1214.33,24
1213.03,22
1211.74,18
1210.44,26
1209.14,21
1207.85,20
1206.55,18
1205.25,14
1203.96,13
1202.66,16
1201.36,14
1200.07,12
1198.77,9
1197.47,8
1196.18,8
1194.88,7
1193.59,9
1192.29,9
1190.99,2
1189.70,-4
1188.40,1
1187.10,3
1185.81,-3
1184.51,-2
1183.21,0
1181.92,1
1180.62,-1
1179.32,-1
1178.03,-0
1176.73,2
1175.43,-1
1174.14,-2
1172.84,4
1171.55,1
1170.25,-3
1168.95,-4
1167.66,-3
1166.36,-4
1165.06,-6
1163.77,0
1162.47,2
1161.17,3
1159.88,3
1158.58,2
1157.28,0
1155.99,-2
1154.69,6
1153.40,-1
1152.10,-4
1150.80,0
1149.51,3
1148.21,-3
1146.91,-3
1145.62,-1
1144.32,-3
1143.02,-8
1141.73,-13
1140.43,-8
1139.13,-1
1137.84,-6
1136.54,-8
1135.24,-3
1133.95,-7
1132.65,-4
1131.36,-11
1130.06,-7
1128.76,-2
1127.47,-4
1126.17,5
1124.87,-0
1123.58,7
1122.28,11
1120.98,7
1119.69,4
1118.39,7
1117.09,5
1115.80,7
1114.50,9
1113.20,11
1111.91,13
1110.61,8
1109.32,7
1108.02,9
1106.72,9
1105.43,8
1104.13,10
1102.83,8
1101.54,9
1100.24,12
1098.94,12
1097.65,10
1096.35,9
1095.05,10
1093.76,16
1092.46,16
1091.16,12
1089.87,17
1088.57,19
1087.28,23
1085.98,28
1084.68,30
1083.39,29
1082.09,37
1080.79,33
1079.50,32
1078.20,34
1076.90,38
1075.61,42
1074.31,41
1073.01,46
1071.72,49
1070.42,47
1069.12,45
1067.83,49
1066.53,43
1065.24,37
1063.94,36
1062.64,37
1061.35,37
1060.05,43
1058.75,43
1057.46,40
1056.16,37
1054.86,37
1053.57,37
1052.27,35
1050.97,34
1049.68,31
1048.38,26
1047.08,30
1045.79,22
1044.49,21
1043.20,19
1041.90,13
1040.60,10
1039.31,19
1038.01,18
1036.71,15
1035.42,12
1034.12,13
1032.82,25
1031.53,20
1030.23,19
1028.93,22
1027.64,24
1026.34,23
1025.04,25
1023.75,16
1022.45,13
1021.16,15
1019.86,13
1018.56,20
1017.27,18
1015.97,14
1014.67,12
1013.38,10
1012.08,5
1010.78,18
1009.49,15
1008.19,13
1006.89,21
1005.60,14
1004.30,16
1003.00,17
1001.71,18
1000.41,22
999.12,29
997.82,24
996.52,29
995.23,30
993.93,24
992.63,18
991.34,14
990.04,11
988.74,10
987.45,10
986.15,3
984.85,6
983.56,4
982.26,1
980.96,0
979.67,6
978.37,8
977.08,2
975.78,1
974.48,4
973.19,3
971.89,7
970.59,2
969.30,8
968.00,15
966.70,11
965.41,12
964.11,9
962.81,13
961.52,14
960.22,9
958.92,15
957.63,8
956.33,11
955.04,15
953.74,11
952.44,9
951.15,7
949.85,9
948.55,11
947.26,11
945.96,10
944.66,8
943.37,12
942.07,16
940.77,15
939.48,21
938.18,14
936.88,10
935.59,13
934.29,19
933.00,21
931.70,17
930.40,16
929.11,17
927.81,18
926.51,26
925.22,29
923.92,26
922.62,27
921.33,35
920.03,29
918.73,35
917.44,39
916.14,38
914.84,41
913.55,45
912.25,42
910.96,39
909.66,39
908.36,43
907.07,33
905.77,28
904.47,31
903.18,37
901.88,36
900.58,28
899.29,25
897.99,22
896.69,19
895.40,20
894.10,18
892.80,21
891.51,23
890.21,19
888.92,21
887.62,19
886.32,22
885.03,25
883.73,20
882.43,27
881.14,29
879.84,28
878.54,29
877.25,32
875.95,32
874.65,27
873.36,29
872.06,36
870.77,30
869.47,33
868.17,34
866.88,34
865.58,36
864.28,35
862.99,38
861.69,35
860.39,30
859.10,33
857.80,33
856.50,34
855.21,36
853.91,37
852.61,40
851.32,38
850.02,37
848.73,37
847.43,36
846.13,32
844.84,38
843.54,41
842.24,41
840.95,40
839.65,36
838.35,32
837.06,34
835.76,38
834.46,35
833.17,31
831.87,27
830.57,27
829.28,31
827.98,32
826.69,27
825.39,21
824.09,21
822.80,33
821.50,22
820.20,23
818.91,21
817.61,13
816.31,23
815.02,13
813.72,8
812.42,9
811.13,12
809.83,9
808.53,8
807.24,6
805.94,2
804.65,-2
803.35,-8
802.05,-4
800.76,3
799.46,-0
798.16,-5
796.87,-8
795.57,-5
794.27,-1
792.98,-1
791.68,-1
790.38,-7
789.09,-10
787.79,0
786.49,-3
785.20,-6
783.90,-6
782.61,-4
781.31,-5
780.01,-12
778.72,-10
777.42,-6
776.12,-8
774.83,-9
773.53,-8
772.23,-8
770.94,-9
769.64,-8
768.34,-5
767.05,-6
765.75,-8
764.45,-2
763.16,-1
761.86,-2
760.57,-1
759.27,4
757.97,6
756.68,0
755.38,2
754.08,9
752.79,7
751.49,2
750.19,4
748.90,8
747.60,6
746.30,8
745.01,7
743.71,5
742.41,5
741.12,5
739.82,6
738.53,5
737.23,2
735.93,-2
734.64,-1
733.34,3
732.04,5
730.75,5
729.45,-4
728.15,-3
726.86,1
725.56,3
724.26,1
722.97,-0
721.67,1
720.37,4
719.08,7
717.78,18
716.49,18
715.19,15
713.89,15
712.60,17
711.30,20
710.00,20
708.71,18
707.41,28
706.11,27
704.82,22
703.52,22
702.22,31
700.93,23
699.63,21
698.33,23
697.04,23
695.74,13
694.45,15
693.15,17
691.85,10
690.56,14
689.26,12
687.96,9
686.67,9
685.37,12
684.07,8
682.78,4
681.48,3
680.18,5
678.89,-5
677.59,0
676.29,7
675.00,-3
673.70,4
672.41,4
671.11,0
669.81,-2
668.52,-1
667.22,4
665.92,4
664.63,-2
663.33,-4
662.03,-3
660.74,-4
659.44,-3
658.14,6
656.85,0
655.55,-1
654.25,6
652.96,7
651.66,-1
650.37,-6
649.07,-3
647.77,9
646.48,-0
645.18,-0
643.88,3
642.59,-2
641.29,1
639.99,3
638.70,1
637.40,-2
636.10,1
634.81,5
633.51,4
632.21,-2
630.92,0
629.62,4
628.33,3
627.03,-2
625.73,10
624.44,-1
623.14,-8
621.84,-1
620.55,-2
619.25,-2
617.95,-1
616.66,-1
615.36,-7
614.06,-7
612.77,-6
611.47,-6
610.18,-3
608.88,-1
607.58,1
606.29,3
604.99,-1
603.69,0
602.40,1
601.10,1
599.80,-1
598.51,-2
597.21,-2
595.91,1
594.62,6
593.32,10
592.02,9
590.73,6
589.43,12
588.14,8
586.84,9
585.54,15
584.25,15
582.95,18
581.65,14
580.36,4
579.06,1
577.76,0
576.47,5
575.17,11
573.87,9
572.58,9
571.28,6
569.98,3
568.69,3
567.39,6
566.10,4
564.80,0
563.50,5
562.21,5
560.91,2
559.61,-0
558.32,3
557.02,5
555.72,4
554.43,0
553.13,0
551.83,2
550.54,6
549.24,10
547.94,13
546.65,8
545.35,5
544.06,4
542.76,-1
541.46,1
540.17,2
538.87,-0
537.57,4
536.28,1
534.98,2
533.68,8
532.39,-6
531.09,2
529.79,12
528.50,7
527.20,2
525.90,-0
524.61,-1
523.31,0
522.02,-4
520.72,-6
519.42,-5
518.13,-3
516.83,-0
515.53,2
514.24,2
512.94,-1
511.64,4
510.35,0
509.05,-6
507.75,-1
506.46,2
505.16,-1
503.86,-5
502.57,5
501.27,-0
499.98,-4
498.68,-1
497.38,0
496.09,2
494.79,-0
493.49,-6
492.20,4
490.90,0
489.60,-4
488.31,5
487.01,9
485.71,8
484.42,4
483.12,3
481.82,7
480.53,10
479.23,8
477.94,2
476.64,3
475.34,-1
474.05,-6
472.75,11
471.45,10
470.16,6
468.86,4
467.56,8
466.27,3
464.97,-3
463.67,-1
462.38,-6
461.08,-1
459.78,5
458.49,-4
457.19,-5
455.90,2
454.60,9
453.30,5
452.01,0
450.71,0
449.41,2
448.12,-6
446.82,9
445.52,25
444.23,26
442.93,25
441.63,27
440.34,27
439.04,18
437.74,23
436.45,23
435.15,19
433.86,30
432.56,23
431.26,16
429.97,15
428.67,13
427.37,5
426.08,-2
424.78,3
423.48,21
422.19,24
420.89,22
419.59,39
418.30,54
417.00,61
415.70,61
414.41,69
413.11,72
411.82,78
410.52,89
409.22,84
407.93,70
406.63,58
405.33,59
404.04,54
402.74,50
401.44,43
400.15,26
398.85,28
397.55,35
396.26,36
394.96,26
393.66,27
392.37,33
391.07,28
389.78,25
388.48,23
387.18,23
385.89,28
384.59,28
383.29,22
382.00,10
380.70,19
379.40,14
378.11,6
376.81,28
375.51,32
374.22,28
372.92,23
371.62,21
370.33,16
369.03,14
367.74,22
366.44,16
365.14,9
363.85,4
362.55,2
361.25,3
359.96,5
358.66,10
357.36,17
356.07,10
354.77,0
353.47,8
352.18,7
350.88,0
349.59,-8
348.29,-5
346.99,-2
345.70,3
344.40,12
343.10,8
341.81,4
340.51,3
339.21,-5
337.92,1
336.62,5
335.32,-3
334.03,2
332.73,3
331.43,2
330.14,10
328.84,1
327.55,-5
326.25,-1
324.95,7
323.66,4
322.36,1
321.06,11
319.77,7
318.47,3
317.17,2
315.88,1
314.58,-0
313.28,1
311.99,6
310.69,-4
309.39,-6
308.10,2
306.80,0
305.51,2
304.21,1
302.91,-6
301.62,-12
300.32,-12
299.02,-5
297.73,-3
296.43,1
295.13,3
293.84,-7
292.54,-1
291.24,2
289.95,0
288.65,1
287.35,-5
286.06,-7
284.76,4
283.47,-1
282.17,-2
280.87,3
279.58,3
278.28,7
276.98,11
275.69,11
274.39,7
273.09,6
271.80,7
270.50,12
269.20,8
267.91,3
266.61,5
265.31,5
264.02,-1
262.72,-10
261.43,1
260.13,1
258.83,-1
257.54,8
256.24,15
254.94,12
253.65,-0
252.35,-1
251.05,-1
249.76,-2
248.46,3
247.16,-3
245.87,-2
244.57,12
243.27,8
241.98,5
240.68,3
239.39,-1
238.09,-0
236.79,2
235.50,5
234.20,9
232.90,9
231.61,4
230.31,-0
229.01,5
227.72,13
226.42,10
225.12,5
223.83,6
222.53,15
221.23,14
219.94,13
218.64,10
217.35,3
216.05,-2
214.75,-2
213.46,-0
212.16,-6
210.86,-7
209.57,-2
208.27,4
206.97,-3
205.68,-14
204.38,-19
203.08,-14
201.79,-10
200.49,-10
